 Sample Value
-0.200
-0.200
-0.200
-0.200
-0.200
-0.200
-0.200
-0.200
-0.190
-0.175
-0.190
-0.205
-0.210
-0.200
-0.195
-0.210
-0.230
-0.235
-0.245
-0.235
-0.230
-0.230
-0.245
-0.270
-0.260
-0.240
-0.225
-0.220
-0.225
-0.225
-0.225
-0.225
-0.220
-0.235
-0.260
-0.260
-0.260
-0.260
-0.255
-0.255
-0.260
-0.260
-0.265
-0.250
-0.240
-0.255
-0.265
-0.280
-0.260
-0.255
-0.250
-0.245
-0.250
-0.255
-0.245
-0.240
-0.250
-0.245
-0.265
-0.270
-0.250
-0.250
-0.245
-0.250
-0.255
-0.255
-0.240
-0.245
-0.265
-0.260
-0.270
-0.280
-0.280
-0.265
-0.265
-0.260
-0.265
-0.255
-0.245
-0.230
-0.230
-0.235
-0.230
-0.235
-0.215
-0.190
-0.175
-0.175
-0.195
-0.225
-0.225
-0.225
-0.230
-0.215
-0.225
-0.225
-0.205
-0.165
-0.135
-0.135
-0.145
-0.165
-0.170
-0.170
-0.185
-0.205
-0.225
-0.230
-0.195
-0.155
-0.120
-0.070
-0.005
0.215
0.575
0.845
0.800
0.525
0.275
0.180
0.195
0.230
0.255
0.280
0.285
0.300
0.320
0.340
0.355
0.345
0.330
0.320
0.340
0.380
0.400
0.410
0.395
0.365
0.335
0.310
0.260
0.195
0.125
0.050
-0.035
-0.130
-0.250
-0.355
-0.420
-0.435
-0.395
-0.380
-0.390
-0.405
-0.440
-0.465
-0.470
-0.460
-0.435
-0.420
-0.405
-0.380
-0.340
-0.310
-0.295
-0.305
-0.310
-0.320
-0.320
-0.310
-0.310
-0.305
-0.290
-0.290
-0.265
-0.260
-0.240
-0.245
-0.240
-0.235
-0.215
-0.200
-0.195
-0.205
-0.215
-0.200
-0.200
-0.190
-0.190
-0.190
-0.185
-0.195
-0.185
-0.175
-0.165
-0.170
-0.170
-0.160
-0.150
-0.140
-0.135
-0.135
-0.150
-0.150
-0.140
-0.130
-0.120
-0.120
-0.115
-0.115
-0.100
-0.090
-0.085
-0.080
-0.090
-0.090
-0.080
-0.060
-0.060
-0.050
-0.045
-0.070
-0.055
-0.055
-0.040
-0.040
-0.045
-0.050
-0.050
-0.050
-0.050
-0.050
-0.050
-0.065
-0.065
-0.065
-0.070
-0.070
-0.090
-0.105
-0.105
-0.105
-0.110
-0.110
-0.140
-0.150
-0.150
-0.155
-0.150
-0.155
-0.185
-0.185
-0.180
-0.185
-0.175
-0.190
-0.205
-0.225
-0.220
-0.205
-0.200
-0.215
-0.225
-0.225
-0.230
-0.230
-0.225
-0.225
-0.230
-0.240
-0.245
-0.230
-0.235
-0.230
-0.245
-0.250
-0.230
-0.235
-0.230
-0.235
-0.250
-0.245
-0.245
-0.235
-0.240
-0.230
-0.235
-0.245
-0.235
-0.230
-0.225
-0.220
-0.220
-0.235
-0.230
-0.220
-0.205
-0.225
-0.230
-0.230
-0.230
-0.215
-0.215
-0.220
-0.235
-0.240
-0.235
-0.230
-0.225
-0.230
-0.250
-0.255
-0.245
-0.240
-0.240
-0.240
-0.255
-0.255
-0.260
-0.245
-0.245
-0.250
-0.265
-0.275
-0.270
-0.250
-0.255
-0.270
-0.275
-0.285
-0.285
-0.265
-0.275
-0.275
-0.280
-0.290
-0.275
-0.275
-0.265
-0.275
-0.290
-0.305
-0.300
-0.290
-0.285
-0.285
-0.295
-0.305
-0.290
-0.295
-0.275
-0.275
-0.305
-0.295
-0.300
-0.285
-0.280
-0.290
-0.305
-0.300
-0.305
-0.290
-0.295
-0.290
-0.305
-0.310
-0.310
-0.290
-0.290
-0.300
-0.295
-0.305
-0.300
-0.295
-0.290
-0.290
-0.295
-0.300
-0.285
-0.280
-0.285
-0.275
-0.305
-0.295
-0.290
-0.285
-0.280
-0.285
-0.300
-0.305
-0.305
-0.290
-0.290
-0.280
-0.285
-0.285
-0.275
-0.270
-0.260
-0.260
-0.255
-0.255
-0.230
-0.190
-0.155
-0.100
0.010
0.240
0.630
0.915
0.885
0.595
0.320
0.200
0.190
0.210
0.205
0.210
0.195
0.190
0.200
0.225
0.230
0.220
0.205
0.185
0.195
0.180
0.175
0.155
0.115
0.070
0.045
0.000
-0.040
-0.105
-0.155
-0.215
-0.280
-0.350
-0.405
-0.450
-0.440
-0.390
-0.330
-0.285
-0.280
-0.305
-0.325
-0.365
-0.360
-0.350
-0.335
-0.310
-0.290
-0.290
-0.290
-0.310
-0.320
-0.335
-0.340
-0.345
-0.355
-0.335
-0.335
-0.335
-0.340
-0.345
-0.330
-0.320
-0.305
-0.300
-0.300
-0.300
-0.290
-0.285
-0.285
-0.280
-0.290
-0.280
-0.285
-0.265
-0.265
-0.270
-0.265
-0.270
-0.265
-0.250
-0.245
-0.245
-0.245
-0.250
-0.250
-0.225
-0.225
-0.230
-0.235
-0.245
-0.215
-0.210
-0.195
-0.200
-0.200
-0.205
-0.195
-0.170
-0.160
-0.165
-0.160
-0.165
-0.145
-0.135
-0.135
-0.135
-0.130
-0.135
-0.125
-0.120
-0.110
-0.125
-0.125
-0.135
-0.130
-0.125
-0.120
-0.125
-0.130
-0.140
-0.135
-0.135
-0.130
-0.135
-0.150
-0.160
-0.160
-0.145
-0.150
-0.155
-0.175
-0.190
-0.185
-0.185
-0.185
-0.190
-0.205
-0.205
-0.205
-0.200
-0.205
-0.210
-0.230
-0.220
-0.225
-0.215
-0.220
-0.220
-0.230
-0.225
-0.220
-0.225
-0.230
-0.230
-0.235
-0.240
-0.225
-0.225
-0.225
-0.220
-0.225
-0.235
-0.225
-0.220
-0.210
-0.215
-0.230
-0.235
-0.225
-0.210
-0.210
-0.220
-0.220
-0.230
-0.225
-0.215
-0.220
-0.215
-0.230
-0.230
-0.220
-0.210
-0.215
-0.215
-0.225
-0.225
-0.225
-0.215
-0.220
-0.235
-0.240
-0.235
-0.240
-0.230
-0.225
-0.230
-0.240
-0.245
-0.245
-0.240
-0.230
-0.240
-0.245
-0.250
-0.250
-0.245
-0.240
-0.240
-0.255
-0.270
-0.255
-0.255
-0.245
-0.255
-0.260
-0.270
-0.265
-0.265
-0.265
-0.255
-0.265
-0.270
-0.275
-0.260
-0.260
-0.265
-0.270
-0.270
-0.275
-0.260
-0.255
-0.265
-0.280
-0.290
-0.285
-0.270
-0.265
-0.270
-0.280
-0.290
-0.290
-0.275
-0.265
-0.270
-0.290
-0.280
-0.275
-0.260
-0.260
-0.270
-0.285
-0.285
-0.270
-0.265
-0.270
-0.265
-0.285
-0.285
-0.280
-0.265
-0.265
-0.270
-0.270
-0.270
-0.265
-0.265
-0.265
-0.270
-0.270
-0.280
-0.280
-0.260
-0.255
-0.255
-0.260
-0.265
-0.255
-0.245
-0.235
-0.240
-0.230
-0.235
-0.195
-0.150
-0.120
-0.035
0.170
0.515
0.870
0.870
0.570
0.275
0.155
0.150
0.175
0.180
0.175
0.160
0.160
0.160
0.170
0.165
0.155
0.135
0.115
0.115
0.120
0.110
0.090
0.040
0.000
-0.060
-0.110
-0.160
-0.205
-0.270
-0.335
-0.425
-0.505
-0.530
-0.520
-0.480
-0.445
-0.405
-0.375
-0.345
-0.335
-0.340
-0.330
-0.320
-0.295
-0.270
-0.255
-0.225
-0.220
-0.225
-0.255
-0.270
-0.290
-0.305
-0.310
-0.325
-0.320
-0.310
-0.290
-0.295
-0.305
-0.315
-0.305
-0.305
-0.300
-0.300
-0.305
-0.315
-0.305
-0.295
-0.295
-0.310
-0.315
-0.315
-0.320
-0.305
-0.300
-0.315
-0.310
-0.315
-0.305
-0.295
-0.290
-0.300
-0.300
-0.295
-0.295
-0.275
-0.260
-0.280
-0.280
-0.270
-0.260
-0.255
-0.245
-0.240
-0.245
-0.245
-0.235
-0.205
-0.210
-0.200
-0.210
-0.205
-0.180
-0.165
-0.155
-0.155
-0.155
-0.155
-0.140
-0.135
-0.115
-0.125
-0.125
-0.135
-0.120
-0.125
-0.110
-0.115
-0.130
-0.135
-0.130
-0.115
-0.125
-0.115
-0.120
-0.140
-0.125
-0.130
-0.125
-0.135
-0.145
-0.150
-0.150
-0.145
-0.150
-0.175
-0.180
-0.200
-0.190
-0.190
-0.185
-0.200
-0.210
-0.220
-0.210
-0.210
-0.225
-0.225
-0.230
-0.235
-0.225
-0.225
-0.220
-0.225
-0.245
-0.250
-0.240
-0.235
-0.230
-0.225
-0.240
-0.240
-0.235
-0.240
-0.235
-0.245
-0.255
-0.260
-0.255
-0.245
-0.255
-0.255
-0.255
-0.260
-0.255
-0.240
-0.240
-0.245
-0.265
-0.285
-0.280
-0.275
-0.255
-0.245
-0.250
-0.265
-0.250
-0.250
-0.250
-0.255
-0.275
-0.290
-0.285
-0.290
-0.270
-0.275
-0.280
-0.285
-0.285
-0.290
-0.285
-0.300
-0.295
-0.300
-0.290
-0.290
-0.275
-0.285
-0.310
-0.305
-0.310
-0.305
-0.300
-0.305
-0.305
-0.315
-0.300
-0.295
-0.295
-0.295
-0.310
-0.330
-0.305
-0.300
-0.290
-0.290
-0.300
-0.310
-0.305
-0.300
-0.295
-0.300
-0.305
-0.315
-0.300
-0.305
-0.300
-0.290
-0.305
-0.315
-0.305
-0.305
-0.295
-0.295
-0.305
-0.305
-0.295
-0.305
-0.295
-0.295
-0.315
-0.310
-0.315
-0.300
-0.295
-0.305
-0.310
-0.320
-0.310
-0.300
-0.285
-0.280
-0.285
-0.290
-0.290
-0.270
-0.270
-0.280
-0.295
-0.305
-0.290
-0.290
-0.285
-0.285
-0.285
-0.295
-0.295
-0.280
-0.270
-0.270
-0.275
-0.270
-0.250
-0.240
-0.230
-0.225
-0.200
-0.170
-0.095
0.055
0.350
0.715
0.880
0.700
0.390
0.205
0.150
0.150
0.145
0.125
0.110
0.125
0.135
0.140
0.120
0.110
0.090
0.090
0.090
0.080
0.060
0.045
0.035
-0.010
-0.045
-0.100
-0.170
-0.220
-0.265
-0.310
-0.375
-0.460
-0.550
-0.600
-0.600
-0.590
-0.570
-0.525
-0.500
-0.485
-0.480
-0.485
-0.490
-0.480
-0.485
-0.450
-0.420
-0.375
-0.335
-0.320
-0.315
-0.320
-0.320
-0.305
-0.295
-0.300
-0.295
-0.280
-0.270
-0.255
-0.250
-0.230
-0.225
-0.220
-0.210
-0.215
-0.225
-0.235
-0.245
-0.225
-0.210
-0.210
-0.195
-0.200
-0.215
-0.215
-0.220
-0.225
-0.230
-0.230
-0.250
-0.245
-0.250
-0.240
-0.235
-0.235
-0.245
-0.240
-0.245
-0.255
-0.260
-0.275
-0.275
-0.260
-0.255
-0.255
-0.260
-0.265
-0.265
-0.250
-0.240
-0.235
-0.225
-0.230
-0.230
-0.215
-0.210
-0.220
-0.210
-0.215
-0.210
-0.195
-0.175
-0.150
-0.145
-0.155
-0.160
-0.165
-0.145
-0.140
-0.130
-0.125
-0.105
-0.100
-0.085
-0.075
-0.080
-0.105
-0.100
-0.095
-0.095
-0.085
-0.090
-0.100
-0.115
-0.100
-0.090
-0.090
-0.095
-0.115
-0.125
-0.120
-0.110
-0.115
-0.120
-0.120
-0.140
-0.140
-0.135
-0.140
-0.160
-0.170
-0.180
-0.175
-0.175
-0.165
-0.180
-0.190
-0.200
-0.200
-0.185
-0.195
-0.180
-0.205
-0.215
-0.215
-0.210
-0.210
-0.220
-0.230
-0.235
-0.230
-0.220
-0.220
-0.225
-0.230
-0.235
-0.230
-0.225
-0.225
-0.235
-0.240
-0.255
-0.240
-0.230
-0.230
-0.235
-0.255
-0.260
-0.250
-0.245
-0.245
-0.245
-0.250
-0.260
-0.260
-0.240
-0.250
-0.260
-0.250
-0.260
-0.255
-0.245
-0.245
-0.260
-0.260
-0.255
-0.260
-0.260
-0.255
-0.265
-0.275
-0.280
-0.270
-0.265
-0.260
-0.275
-0.275
-0.285
-0.280
-0.270
-0.275
-0.275
-0.290
-0.300
-0.285
-0.280
-0.280
-0.290
-0.290
-0.300
-0.300
-0.275
-0.285
-0.285
-0.295
-0.305
-0.300
-0.290
-0.285
-0.285
-0.305
-0.305
-0.300
-0.290
-0.300
-0.295
-0.315
-0.315
-0.310
-0.300
-0.300
-0.305
-0.305
-0.320
-0.300
-0.295
-0.295
-0.300
-0.315
-0.320
-0.310
-0.305
-0.290
-0.300
-0.310
-0.315
-0.305
-0.300
-0.300
-0.295
-0.315
-0.315
-0.315
-0.300
-0.295
-0.305
-0.315
-0.315
-0.305
-0.295
-0.300
-0.295
-0.320
-0.320
-0.290
-0.300
-0.295
-0.300
-0.295
-0.300
-0.300
-0.300
-0.300
-0.290
-0.305
-0.300
-0.310
-0.300
-0.285
-0.295
-0.305
-0.310
-0.290
-0.275
-0.270
-0.270
-0.285
-0.280
-0.265
-0.250
-0.230
-0.205
-0.170
-0.130
-0.015
0.215
0.580
0.845
0.815
0.540
0.270
0.155
0.135
0.140
0.135
0.140
0.140
0.150
0.165
0.160
0.160
0.170
0.170
0.160
0.145
0.125
0.125
0.100
0.100
0.080
0.050
0.020
-0.030
-0.080
-0.130
-0.160
-0.220
-0.280
-0.340
-0.410
-0.480
-0.530
-0.565
-0.555
-0.525
-0.490
-0.465
-0.445
-0.450
-0.445
-0.445
-0.450
-0.430
-0.410
-0.400
-0.385
-0.370
-0.340
-0.305
-0.280
-0.280
-0.295
-0.320
-0.325
-0.320
-0.320
-0.325
-0.320
-0.330
-0.325
-0.320
-0.295
-0.295
-0.290
-0.290
-0.290
-0.275
-0.275
-0.285
-0.275
-0.265
-0.265
-0.250
-0.250
-0.245
-0.245
-0.250
-0.240
-0.225
-0.230
-0.225
-0.230
-0.225
-0.235
-0.215
-0.200
-0.180
-0.185
-0.180
-0.175
-0.175
-0.175
-0.180
-0.200
-0.220
-0.230
-0.225
-0.235
-0.240
-0.255
-0.250
-0.255
-0.240
-0.230
-0.235
-0.230
-0.240
-0.240
-0.230
-0.215
-0.225
-0.220
-0.210
-0.210
-0.195
-0.195
-0.185
-0.190
-0.190
-0.185
-0.170
-0.165
-0.170
-0.160
-0.170
-0.165
-0.145
-0.150
-0.145
-0.150
-0.155
-0.160
-0.160
-0.150
-0.155
-0.150
-0.165
-0.175
-0.165
-0.165
-0.175
-0.185
-0.205
-0.205
-0.200
-0.195
-0.200
-0.215
-0.215
-0.225
-0.220
-0.210
-0.215
-0.215
-0.240
-0.245
-0.250
-0.240
-0.245
-0.250
-0.260
-0.260
-0.260
-0.250
-0.245
-0.255
-0.250
-0.265
-0.270
-0.245
-0.255
-0.250
-0.265
-0.275
-0.275
-0.265
-0.280
-0.280
-0.285
-0.290
-0.275
-0.270
-0.285
-0.275
-0.290
-0.295
-0.270
-0.275
-0.275
-0.285
-0.290
-0.295
-0.290
-0.290
-0.295
-0.305
-0.305
-0.310
-0.300
-0.290
-0.285
-0.305
-0.295
-0.310
-0.310
-0.300
-0.305
-0.315
-0.325
-0.320
-0.305
-0.305
-0.320
-0.315
-0.330
-0.325
-0.325
-0.315
-0.305
-0.320
-0.340
-0.330
-0.320
-0.320
-0.320
-0.325
-0.335
-0.335
-0.345
-0.330
-0.320
-0.325
-0.340
-0.345
-0.340
-0.320
-0.315
-0.335
-0.345
-0.335
-0.335
-0.330
-0.335
-0.335
-0.340
-0.340
-0.330
-0.320
-0.330
-0.335
-0.345
-0.350
-0.335
-0.325
-0.320
-0.330
-0.340
-0.345
-0.330
-0.325
-0.325
-0.335
-0.345
-0.340
-0.345
-0.320
-0.315
-0.330
-0.335
-0.340
-0.330
-0.330
-0.325
-0.320
-0.335
-0.330
-0.325
-0.315
-0.315
-0.330
-0.340
-0.330
-0.325
-0.310
-0.305
-0.310
-0.310
-0.325
-0.315
-0.300
-0.300
-0.305
-0.310
-0.310
-0.300
-0.290
-0.280
-0.275
-0.265
-0.265
-0.230
-0.180
-0.110
0.005
0.260
0.645
0.890
0.800
0.455
0.190
0.100
0.095
0.120
0.120
0.110
0.105
0.110
0.100
0.120
0.120
0.125
0.095
0.075
0.060
0.065
0.080
0.060
0.030
-0.015
-0.050
-0.080
-0.115
-0.170
-0.225
-0.290
-0.350
-0.405
-0.465
-0.545
-0.600
-0.625
-0.590
-0.550
-0.505
-0.475
-0.455
-0.460
-0.455
-0.460
-0.445
-0.440
-0.430
-0.410
-0.390
-0.340
-0.295
-0.295
-0.300
-0.315
-0.355
-0.330
-0.330
-0.345
-0.355
-0.350
-0.350
-0.330
-0.320
-0.295
-0.305
-0.305
-0.310
-0.310
-0.300
-0.290
-0.280
-0.290
-0.285
-0.285
-0.275
-0.260
-0.270
-0.270
-0.270
-0.255
-0.255
-0.260
-0.260
-0.255
-0.265
-0.260
-0.240
-0.240
-0.240
-0.240
-0.250
-0.240
-0.225
-0.210
-0.220
-0.215
-0.215
-0.200
-0.200
-0.195
-0.200
-0.200
-0.195
-0.185
-0.170
-0.160
-0.150
-0.150
-0.160
-0.145
-0.140
-0.140
-0.140
-0.140
-0.140
-0.135
-0.125
-0.125
-0.110
-0.115
-0.125
-0.090
-0.080
-0.080
-0.080
-0.090
-0.095
-0.085
-0.080
-0.075
-0.080
-0.090
-0.085
-0.085
-0.080
-0.090
-0.100
-0.110
-0.135
-0.130
-0.125
-0.135
-0.150
-0.175
-0.190
-0.200
-0.200
-0.195
-0.210
-0.230
-0.220
-0.230
-0.220
-0.220
-0.245
-0.270
-0.255
-0.255
-0.250
-0.255
-0.260
-0.255
-0.265
-0.265
-0.250
-0.255
-0.255
-0.270
-0.275
-0.270
-0.265
-0.270
-0.265
-0.275
-0.280
-0.275
-0.270
-0.275
-0.285
-0.295
-0.295
-0.290
-0.275
-0.285
-0.305
-0.300
-0.295
-0.295
-0.290
-0.290
-0.290
-0.305
-0.310
-0.315
-0.295
-0.305
-0.310
-0.315
-0.330
-0.320
-0.320
-0.315
-0.330
-0.345
-0.340
-0.335
-0.325
-0.335
-0.325
-0.330
-0.340
-0.335
-0.320
-0.330
-0.335
-0.335
-0.345
-0.335
-0.330
-0.330
-0.340
-0.350
-0.340
-0.340
-0.330
-0.325
-0.330
-0.340
-0.340
-0.335
-0.330
-0.330
-0.330
-0.340
-0.350
-0.340
-0.330
-0.330
-0.330
-0.335
-0.340
-0.345
-0.330
-0.335
-0.335
-0.340
-0.335
-0.325
-0.320
-0.320
-0.320
-0.330
-0.320
-0.315
-0.310
-0.320
-0.330
-0.335
-0.335
-0.320
-0.315
-0.330
-0.325
-0.315
-0.310
-0.305
-0.285
-0.295
-0.295
-0.305
-0.320
-0.305
-0.280
-0.275
-0.285
-0.290
-0.300
-0.290
-0.285
-0.280
-0.295
-0.295
-0.295
-0.285
-0.285
-0.280
-0.280
-0.280
-0.275
-0.270
-0.260
-0.230
-0.210
-0.160
-0.085
0.095
0.420
0.810
0.935
0.735
0.385
0.185
0.140
0.150
0.155
0.145
0.145
0.145
0.150
0.155
0.140
0.130
0.110
0.115
0.110
0.125
0.115
0.100
0.065
0.040
0.020
-0.010
-0.070
-0.140
-0.195
-0.250
-0.295
-0.365
-0.455
-0.530
-0.580
-0.560
-0.530
-0.475
-0.455
-0.460
-0.460
-0.470
-0.465
-0.455
-0.430
-0.425
-0.385
-0.330
-0.290
-0.270
-0.280
-0.315
-0.320
-0.310
-0.320
-0.320
-0.320
-0.315
-0.315
-0.285
-0.255
-0.245
-0.250
-0.260
-0.250
-0.250
-0.235
-0.235
-0.245
-0.240
-0.245
-0.230
-0.220
-0.210
-0.235
-0.230
-0.225
-0.205
-0.195
-0.210
-0.185
-0.195
-0.195
-0.180
-0.175
-0.175
-0.165
-0.190
-0.185
-0.175
-0.165
-0.160
-0.165
-0.145
-0.145
-0.130
-0.115
-0.115
-0.110
-0.115
-0.110
-0.105
-0.095
-0.090
-0.095
-0.080
-0.095
-0.075
-0.065
-0.065
-0.065
-0.070
-0.060
-0.045
-0.040
-0.030
-0.025
-0.030
-0.045
-0.020
-0.025
-0.020
-0.025
-0.050
-0.040
-0.035
-0.010
-0.005
-0.010
-0.030
-0.030
-0.030
-0.045
-0.040
-0.055
-0.060
-0.085
-0.095
-0.095
-0.095
-0.110
-0.110
-0.110
-0.120
-0.120
-0.130
-0.140
-0.160
-0.170
-0.165
-0.170
-0.185
-0.185
-0.200
-0.205
-0.200
-0.185
-0.190
-0.200
-0.190
-0.200
-0.185
-0.180
-0.185
-0.190
-0.205
-0.220
-0.210
-0.200
-0.200
-0.195
-0.205
-0.200
-0.195
-0.200
-0.200
-0.215
-0.220
-0.215
-0.205
-0.195
-0.195
-0.205
-0.225
-0.225
-0.235
-0.225
-0.225
-0.225
-0.235
-0.245
-0.245
-0.245
-0.245
-0.245
-0.245
-0.255
-0.250
-0.245
-0.260
-0.260
-0.265
-0.270
-0.255
-0.255
-0.260
-0.255
-0.255
-0.265
-0.260
-0.250
-0.280
-0.265
-0.265
-0.275
-0.265
-0.265
-0.265
-0.275
-0.270
-0.280
-0.265
-0.255
-0.250
-0.275
-0.280
-0.275
-0.275
-0.270
-0.275
-0.260
-0.270
-0.265
-0.275
-0.255
-0.255
-0.260
-0.265
-0.270
-0.260
-0.250
-0.260
-0.255
-0.265
-0.260
-0.250
-0.240
-0.250
-0.255
-0.260
-0.260
-0.255
-0.250
-0.255
-0.245
-0.270
-0.275
-0.270
-0.255
-0.255
-0.260
-0.265
-0.260
-0.260
-0.255
-0.245
-0.245
-0.255
-0.260
-0.255
-0.255
-0.250
-0.250
-0.260
-0.265
-0.255
-0.240
-0.245
-0.245
-0.250
-0.255
-0.240
-0.225
-0.220
-0.220
-0.225
-0.225
-0.175
-0.115
-0.035
0.155
0.510
0.880
0.955
0.685
0.345
0.185
0.155
0.175
0.190
0.195
0.195
0.185
0.190
0.190
0.200
0.195
0.165
0.140
0.135
0.130
0.130
0.125
0.085
0.045
-0.015
-0.075
-0.120
-0.170
-0.240
-0.320
-0.390
-0.480
-0.555
-0.580
-0.575
-0.540
-0.510
-0.485
-0.470
-0.450
-0.450
-0.440
-0.435
-0.415
-0.370
-0.340
-0.285
-0.265
-0.280
-0.285
-0.290
-0.285
-0.295
-0.305
-0.315
-0.305
-0.285
-0.270
-0.250
-0.260
-0.260
-0.265
-0.260
-0.240
-0.235
-0.245
-0.245
-0.250
-0.250
-0.225
-0.220
-0.235
-0.250
-0.245
-0.230
-0.220
-0.215
-0.215
-0.240
-0.225
-0.210
-0.195
-0.200
-0.205
-0.230
-0.215
-0.205
-0.195
-0.190
-0.185
-0.185
-0.175
-0.165
-0.160
-0.155
-0.160
-0.160
-0.160
-0.130
-0.130
-0.120
-0.125
-0.120
-0.110
-0.095
-0.080
-0.075
-0.090
-0.095
-0.100
-0.070
-0.070
-0.080
-0.085
-0.080
-0.075
-0.050
-0.045
-0.055
-0.060
-0.065
-0.075
-0.060
-0.060
-0.060
-0.070
-0.080
-0.100
-0.100
-0.085
-0.095
-0.110
-0.125
-0.140
-0.135
-0.140
-0.130
-0.140
-0.155
-0.170
-0.165
-0.165
-0.165
-0.170
-0.180
-0.175
-0.180
-0.175
-0.175
-0.185
-0.195
-0.200
-0.190
-0.185
-0.190
-0.200
-0.215
-0.225
-0.210
-0.200
-0.205
-0.215
-0.205
-0.220
-0.210
-0.200
-0.210
-0.210
-0.215
-0.220
-0.210
-0.195
-0.210
-0.215
-0.235
-0.240
-0.230
-0.220
-0.220
-0.230
-0.245
-0.250
-0.245
-0.240
-0.225
-0.230
-0.225
-0.235
-0.220
-0.210
-0.220
-0.230
-0.230
-0.220
-0.210
-0.190
-0.195
-0.200
-0.230
-0.235
-0.230
-0.220
-0.220
-0.230
-0.230
-0.245
-0.240
-0.240
-0.245
-0.260
-0.280
-0.305
-0.285
-0.280
-0.280
-0.285
-0.295
-0.310
-0.295
-0.285
-0.275
-0.295
-0.310
-0.310
-0.315
-0.295
-0.295
-0.315
-0.320
-0.320
-0.305
-0.295
-0.300
-0.320
-0.315
-0.315
-0.305
-0.295
-0.305
-0.310
-0.310
-0.310
-0.300
-0.300
-0.300
-0.315
-0.320
-0.310
-0.305
-0.295
-0.295
-0.300
-0.295
-0.310
-0.305
-0.305
-0.295
-0.300
-0.300
-0.300
-0.295
-0.285
-0.285
-0.290
-0.310
-0.305
-0.290
-0.285
-0.290
-0.300
-0.290
-0.300
-0.285
-0.285
-0.285
-0.285
-0.280
-0.275
-0.270
-0.250
-0.250
-0.255
-0.250
-0.230
-0.190
-0.130
-0.030
0.225
0.585
0.785
0.650
0.340
0.150
0.110
0.120
0.155
0.155
0.155
0.150
0.155
0.160
0.165
0.155
0.145
0.125
0.135
0.135
0.135
0.125
0.110
0.075
0.040
-0.020
-0.075
-0.120
-0.170
-0.230
-0.285
-0.375
-0.465
-0.480
-0.460
-0.405
-0.370
-0.365
-0.365
-0.360
-0.365
-0.375
-0.380
-0.400
-0.395
-0.380
-0.355
-0.330
-0.325
-0.320
-0.330
-0.330
-0.320
-0.325
-0.335
-0.350
-0.360
-0.350
-0.350
-0.345
-0.325
-0.325
-0.335
-0.315
-0.300
-0.285
-0.295
-0.300
-0.310
-0.295
-0.275
-0.275
-0.270
-0.285
-0.290
-0.270
-0.250
-0.265
-0.265
-0.280
-0.275
-0.275
-0.255
-0.255
-0.255
-0.260
-0.265
-0.245
-0.240
-0.235
-0.240
-0.240
-0.240
-0.225
-0.215
-0.210
-0.220
-0.205
-0.195
-0.190
-0.170
-0.175
-0.175
-0.180
-0.180
-0.145
-0.140
-0.145
-0.140
-0.140
-0.145
-0.120
-0.105
-0.110
-0.120
-0.125
-0.120
-0.115
-0.095
-0.095
-0.110
-0.110
-0.115
-0.110
-0.105
-0.105
-0.110
-0.115
-0.135
-0.125
-0.120
-0.130
-0.130
-0.145
-0.150
-0.150
-0.145
-0.150
-0.155
-0.175
-0.185
-0.170
-0.180
-0.170
-0.190
-0.190
-0.195
-0.190
-0.180
-0.190
-0.200
-0.210
-0.200
-0.195
-0.185
-0.180
-0.200
-0.210
-0.205
-0.200
-0.185
-0.200
-0.205
-0.210
-0.205
-0.205
-0.200
-0.200
-0.210
-0.210
-0.220
-0.200
-0.190
-0.200
-0.210
-0.215
-0.225
-0.215
-0.195
-0.205
-0.210
-0.220
-0.220
-0.210
-0.200
-0.210
-0.215
-0.215
-0.220
-0.215
-0.210
-0.210
-0.215
-0.215
-0.230
-0.215
-0.210
-0.215
-0.225
-0.230
-0.245
-0.225
-0.220
-0.225
-0.230
-0.245
-0.240
-0.235
-0.225
-0.225
-0.235
-0.240
-0.250
-0.240
-0.225
-0.230
-0.240
-0.245
-0.255
-0.250
-0.245
-0.245
-0.250
-0.260
-0.265
-0.245
-0.245
-0.245
-0.245
-0.270
-0.265
-0.260
-0.255
-0.260
-0.265
-0.275
-0.285
-0.270
-0.270
-0.270
-0.275
-0.270
-0.260
-0.245
-0.230
-0.230
-0.245
-0.245
-0.240
-0.225
-0.210
-0.215
-0.220
-0.215
-0.235
-0.235
-0.225
-0.230
-0.225
-0.235
-0.240
-0.230
-0.220
-0.240
-0.240
-0.260
-0.260
-0.270
-0.265
-0.255
-0.265
-0.280
-0.265
-0.260
-0.260
-0.260
-0.265
-0.270
-0.275
-0.255
-0.250
-0.260
-0.265
-0.270
-0.265
-0.255
-0.235
-0.225
-0.220
-0.195
-0.160
-0.105
0.010
0.310
0.680
0.825
0.595
0.295
0.145
0.130
0.160
0.185
0.190
0.210
0.245
0.260
0.265
0.290
0.300
0.305
0.320
0.330
0.345
0.365
0.380
0.380
0.410
0.395
0.395
0.345
0.285
0.230
0.195
0.155
0.065
-0.035
-0.130
-0.160
-0.140
-0.130
-0.135
-0.140
-0.165
-0.170
-0.190
-0.225
-0.285
-0.320
-0.345
-0.345
-0.350
-0.360
-0.370
-0.400
-0.405
-0.395
-0.370
-0.370
-0.365
-0.395
-0.390
-0.410
-0.395
-0.400
-0.390
-0.400
-0.395
-0.380
-0.350
-0.335
-0.335
-0.340
-0.350
-0.335
-0.315
-0.325
-0.330
-0.330
-0.325
-0.315
-0.305
-0.315
-0.320
-0.320
-0.320
-0.320
-0.305
-0.295
-0.315
-0.300
-0.295
-0.280
-0.275
-0.290
-0.285
-0.300
-0.295
-0.280
-0.260
-0.270
-0.270
-0.270
-0.255
-0.240
-0.225
-0.215
-0.205
-0.210
-0.210
-0.200
-0.180
-0.165
-0.165
-0.165
-0.170
-0.150
-0.145
-0.145
-0.135
-0.145
-0.140
-0.145
-0.125
-0.130
-0.140
-0.145
-0.160
-0.150
-0.135
-0.145
-0.155
-0.165
-0.170
-0.160
-0.145
-0.160
-0.170
-0.190
-0.190
-0.180
-0.175
-0.170
-0.195
-0.210
-0.215
-0.210
-0.210
-0.220
-0.225
-0.235
-0.235
-0.220
-0.215
-0.220
-0.215
-0.220
-0.230
-0.235
-0.220
-0.230
-0.245
-0.250
-0.240
-0.230
-0.215
-0.230
-0.240
-0.245
-0.245
-0.230
-0.225
-0.225
-0.235
-0.230
-0.230
-0.225
-0.205
-0.215
-0.225
-0.240
-0.250
-0.235
-0.215
-0.225
-0.225
-0.235
-0.250
-0.245
-0.235
-0.240
-0.260
-0.255
-0.250
-0.240
-0.225
-0.240
-0.250
-0.260
-0.265
-0.255
-0.235
-0.260
-0.260
-0.260
-0.275
-0.255
-0.255
-0.270
-0.280
-0.275
-0.285
-0.280
-0.265
-0.285
-0.285
-0.295
-0.290
-0.285
-0.265
-0.275
-0.275
-0.290
-0.280
-0.270
-0.270
-0.275
-0.280
-0.300
-0.305
-0.305
-0.280
-0.295
-0.285
-0.300
-0.315
-0.310
-0.300
-0.290
-0.295
-0.305
-0.310
-0.300
-0.295
-0.290
-0.285
-0.300
-0.295
-0.300
-0.280
-0.280
-0.285
-0.310
-0.300
-0.295
-0.265
-0.270
-0.290
-0.300
-0.285
-0.275
-0.280
-0.280
-0.305
-0.300
-0.300
-0.305
-0.285
-0.285
-0.315
-0.320
-0.315
-0.305
-0.285
-0.290
-0.295
-0.290
-0.310
-0.285
-0.270
-0.270
-0.260
-0.255
-0.255
-0.235
-0.225
-0.225
-0.220
-0.215
-0.190
-0.170
-0.145
-0.125
-0.085
0.060
0.410
0.810
0.940
0.700
0.365
0.180
0.140
0.170
0.180
0.155
0.120
0.115
0.110
0.145
0.160
0.150
0.130
0.125
0.120
0.145
0.165
0.150
0.140
0.100
0.080
0.080
0.055
0.000
-0.015
-0.080
-0.135
-0.210
-0.280
-0.370
-0.415
-0.410
-0.385
-0.350
-0.330
-0.345
-0.370
-0.405
-0.420
-0.425
-0.410
-0.395
-0.355
-0.340
-0.315
-0.280
-0.275
-0.305
-0.320
-0.340
-0.350
-0.345
-0.320
-0.330
-0.320
-0.320
-0.310
-0.285
-0.275
-0.265
-0.275
-0.265
-0.260
-0.255
-0.240
-0.245
-0.250
-0.235
-0.245
-0.230
-0.210
-0.205
-0.215
-0.220
-0.215
-0.210
-0.210
-0.200
-0.200
-0.205
-0.200
-0.205
-0.185
-0.175
-0.170
-0.160
-0.160
-0.135
-0.120
-0.125
-0.140
-0.140
-0.130
-0.110
-0.110
-0.105
-0.100
-0.100
-0.105
-0.090
-0.065
-0.075
-0.060
-0.065
-0.070
-0.050
-0.040
-0.050
-0.040
-0.050
-0.050
-0.035
-0.030
-0.035
-0.060
-0.065
-0.065
-0.060
-0.040
-0.060
-0.070
-0.075
-0.100
-0.100
-0.100
-0.115
-0.120
-0.135
-0.145
-0.135
-0.135
-0.145
-0.160
-0.165
-0.165
-0.165
-0.170
-0.160
-0.195
-0.180
-0.200
-0.195
-0.190
-0.200
-0.215
-0.220
-0.225
-0.220
-0.205
-0.205
-0.205
-0.220
-0.220
-0.220
-0.200
-0.210
-0.215
-0.220
-0.220
-0.220
-0.210
-0.210
-0.230
-0.235
-0.235
-0.225
-0.220
-0.220
-0.225
-0.245
-0.245
-0.235
-0.235
-0.220
-0.225
-0.220
-0.235
-0.225
-0.220
-0.245
-0.240
-0.255
-0.260
-0.250
-0.230
-0.225
-0.250
-0.255
-0.245
-0.230
-0.225
-0.235
-0.245
-0.250
-0.255
-0.260
-0.245
-0.250
-0.260
-0.290
-0.285
-0.275
-0.265
-0.275
-0.280
-0.285
-0.285
-0.280
-0.265
-0.270
-0.280
-0.300
-0.305
-0.300
-0.295
-0.285
-0.285
-0.290
-0.295
-0.300
-0.290
-0.295
-0.310
-0.305
-0.325
-0.310
-0.290
-0.305
-0.310
-0.325
-0.330
-0.315
-0.300
-0.300
-0.315
-0.320
-0.330
-0.320
-0.305
-0.305
-0.325
-0.325
-0.325
-0.320
-0.310
-0.315
-0.320
-0.320
-0.335
-0.325
-0.320
-0.325
-0.330
-0.340
-0.335
-0.335
-0.325
-0.320
-0.340
-0.350
-0.350
-0.345
-0.335
-0.350
-0.350
-0.355
-0.355
-0.355
-0.335
-0.350
-0.350
-0.365
-0.360
-0.355
-0.345
-0.345
-0.355
-0.355
-0.355
-0.345
-0.325
-0.325
-0.335
-0.345
-0.335
-0.335
-0.310
-0.330
-0.325
-0.315
-0.305
-0.290
-0.240
-0.225
-0.185
-0.100
0.110
0.475
0.760
0.730
0.445
0.180
0.080
0.085
0.110
0.110
0.100
0.100
0.100
0.115
0.130
0.130
0.090
0.060
0.040
0.055
0.045
0.050
0.030
-0.005
-0.030
-0.065
-0.075
-0.140
-0.200
-0.235
-0.280
-0.325
-0.375
-0.450
-0.525
-0.580
-0.570
-0.530
-0.470
-0.440
-0.425
-0.415
-0.425
-0.440
-0.440
-0.450
-0.465
-0.465
-0.440
-0.410
-0.370
-0.350
-0.355
-0.385
-0.400
-0.410
-0.405
-0.415
-0.435
-0.450
-0.450
-0.440
-0.430
-0.435
-0.430
-0.440
-0.420
-0.410
-0.395
-0.390
-0.395
-0.400
-0.395
-0.375
-0.375
-0.375
-0.380
-0.375
-0.370
-0.360
-0.340
-0.355
-0.360
-0.370
-0.345
-0.345
-0.330
-0.335
-0.330
-0.340
-0.330
-0.340
-0.330
-0.320
-0.310
-0.325
-0.325
-0.305
-0.290
-0.290
-0.295
-0.300
-0.295
-0.290
-0.260
-0.265
-0.275
-0.275
-0.275
-0.255
-0.230
-0.245
-0.250
-0.250
-0.240
-0.230
-0.225
-0.225
-0.235
-0.225
-0.210
-0.210
-0.205
-0.200
-0.205
-0.215
-0.205
-0.195
-0.200
-0.205
-0.210
-0.215
-0.230
-0.210
-0.195
-0.210
-0.225
-0.225
-0.225
-0.230
-0.235
-0.240
-0.245
-0.255
-0.255
-0.255
-0.250
-0.255
-0.270
-0.290
-0.285
-0.285
-0.280
-0.295
-0.300
-0.315
-0.325
-0.310
-0.300
-0.300
-0.310
-0.330
-0.330
-0.320
-0.325
-0.315
-0.325
-0.335
-0.340
-0.335
-0.325
-0.325
-0.325
-0.340
-0.340
-0.340
-0.330
-0.330
-0.335
-0.335
-0.340
-0.335
-0.335
-0.330
-0.335
-0.335
-0.345
-0.340
-0.320
-0.310
-0.330
-0.350
-0.340
-0.330
-0.335
-0.315
-0.320
-0.335
-0.330
-0.330
-0.325
-0.320
-0.330
-0.330
-0.345
-0.335
-0.330
-0.335
-0.340
-0.340
-0.340
-0.350
-0.340
-0.340
-0.350
-0.355
-0.345
-0.340
-0.335
-0.350
-0.355
-0.355
-0.380
-0.370
-0.355
-0.350
-0.370
-0.370
-0.360
-0.360
