 Sample Value
0.260
0.260
0.260
0.260
0.260
0.260
0.260
0.260
0.260
0.250
0.250
0.260
0.270
0.250
0.255
0.235
0.235
0.245
0.265
0.250
0.235
0.225
0.215
0.225
0.230
0.230
0.220
0.205
0.205
0.215
0.215
0.215
0.200
0.190
0.190
0.195
0.200
0.195
0.195
0.185
0.180
0.180
0.195
0.200
0.190
0.175
0.170
0.165
0.185
0.170
0.190
0.180
0.175
0.185
0.200
0.190
0.170
0.175
0.170
0.190
0.195
0.165
0.175
0.150
0.155
0.170
0.180
0.175
0.160
0.145
0.140
0.160
0.175
0.160
0.155
0.145
0.150
0.155
0.170
0.170
0.155
0.140
0.140
0.155
0.160
0.155
0.140
0.140
0.135
0.135
0.155
0.135
0.145
0.135
0.140
0.150
0.150
0.150
0.140
0.130
0.130
0.150
0.155
0.150
0.145
0.130
0.135
0.140
0.145
0.140
0.140
0.140
0.135
0.150
0.170
0.155
0.150
0.135
0.140
0.140
0.175
0.195
0.210
0.210
0.215
0.215
0.225
0.225
0.220
0.220
0.205
0.195
0.185
0.170
0.160
0.160
0.170
0.165
0.180
0.165
0.145
0.135
0.135
0.160
0.165
0.145
0.140
0.125
0.125
0.120
0.120
0.125
0.110
0.100
0.095
0.110
0.125
0.115
0.100
0.095
0.090
0.105
0.105
0.105
0.105
0.110
0.110
0.105
0.125
0.115
0.110
0.095
0.095
0.105
0.110
0.110
0.085
0.085
0.060
0.050
0.060
0.070
0.055
0.030
0.000
-0.025
-0.070
-0.130
-0.215
-0.310
-0.375
-0.425
-0.415
-0.395
-0.345
-0.305
-0.275
-0.245
-0.200
-0.165
-0.125
-0.095
-0.055
-0.005
0.040
0.040
0.065
0.085
0.095
0.125
0.145
0.140
0.155
0.165
0.165
0.195
0.195
0.180
0.170
0.160
0.155
0.170
0.195
0.195
0.190
0.180
0.170
0.175
0.195
0.200
0.190
0.185
0.195
0.200
0.205
0.210
0.205
0.200
0.205
0.205
0.220
0.225
0.215
0.190
0.205
0.205
0.215
0.215
0.225
0.220
0.205
0.220
0.230
0.225
0.220
0.225
0.225
0.250
0.245
0.250
0.235
0.220
0.230
0.240
0.245
0.255
0.240
0.240
0.235
0.250
0.270
0.265
0.265
0.250
0.250
0.260
0.275
0.250
0.245
0.260
0.260
0.270
0.280
0.265
0.255
0.240
0.240
0.235
0.245
0.240
0.230
0.215
0.210
0.215
0.215
0.215
0.215
0.185
0.195
0.205
0.205
0.195
0.185
0.175
0.175
0.180
0.205
0.185
0.195
0.175
0.165
0.170
0.190
0.185
0.180
0.175
0.165
0.190
0.190
0.185
0.180
0.180
0.170
0.185
0.195
0.175
0.165
0.160
0.165
0.170
0.175
0.185
0.180
0.170
0.165
0.160
0.170
0.165
0.155
0.140
0.155
0.165
0.165
0.160
0.150
0.145
0.145
0.145
0.165
0.155
0.150
0.130
0.125
0.130
0.140
0.145
0.130
0.145
0.145
0.155
0.155
0.145
0.130
0.125
0.125
0.140
0.150
0.145
0.135
0.125
0.130
0.130
0.140
0.145
0.145
0.135
0.125
0.140
0.145
0.145
0.135
0.125
0.145
0.145
0.190
0.195
0.195
0.215
0.215
0.230
0.235
0.235
0.230
0.215
0.195
0.200
0.200
0.195
0.195
0.175
0.165
0.165
0.155
0.150
0.145
0.130
0.140
0.150
0.175
0.155
0.150
0.130
0.115
0.125
0.140
0.135
0.130
0.135
0.110
0.130
0.130
0.125
0.115
0.115
0.115
0.130
0.145
0.130
0.120
0.110
0.110
0.130
0.130
0.145
0.125
0.120
0.110
0.130
0.130
0.120
0.105
0.095
0.095
0.110
0.120
0.100
0.080
0.040
-0.015
-0.050
-0.120
-0.225
-0.315
-0.380
-0.380
-0.340
-0.270
-0.220
-0.215
-0.200
-0.175
-0.125
-0.065
-0.055
-0.015
0.025
0.050
0.080
0.110
0.125
0.140
0.140
0.155
0.175
0.195
0.215
0.220
0.190
0.195
0.190
0.205
0.205
0.200
0.205
0.205
0.205
0.210
0.220
0.215
0.195
0.200
0.205
0.220
0.215
0.215
0.195
0.195
0.200
0.210
0.205
0.200
0.220
0.220
0.235
0.240
0.235
0.220
0.225
0.225
0.235
0.235
0.230
0.225
0.210
0.210
0.220
0.230
0.230
0.220
0.200
0.210
0.215
0.220
0.235
0.235
0.225
0.215
0.225
0.250
0.235
0.245
0.225
0.235
0.240
0.235
0.250
0.235
0.240
0.235
0.245
0.250
0.250
0.235
0.235
0.225
0.230
0.225
0.225
0.225
0.210
0.210
0.200
0.215
0.200
0.205
0.205
0.190
0.190
0.195
0.205
0.180
0.175
0.185
0.190
0.190
0.180
0.165
0.155
0.165
0.180
0.195
0.180
0.180
0.175
0.180
0.185
0.190
0.190
0.190
0.185
0.180
0.195
0.200
0.195
0.190
0.185
0.170
0.175
0.175
0.170
0.170
0.155
0.170
0.185
0.195
0.170
0.180
0.160
0.160
0.165
0.170
0.170
0.160
0.155
0.145
0.160
0.165
0.160
0.160
0.145
0.150
0.160
0.160
0.150
0.145
0.145
0.155
0.155
0.170
0.160
0.160
0.145
0.145
0.155
0.165
0.160
0.160
0.140
0.140
0.150
0.155
0.165
0.155
0.155
0.145
0.165
0.185
0.190
0.210
0.215
0.220
0.230
0.230
0.205
0.215
0.200
0.190
0.190
0.195
0.190
0.185
0.170
0.185
0.175
0.175
0.155
0.160
0.155
0.150
0.150
0.165
0.165
0.140
0.125
0.130
0.140
0.145
0.130
0.120
0.105
0.105
0.115
0.130
0.125
0.120
0.110
0.110
0.120
0.125
0.125
0.125
0.110
0.110
0.130
0.140
0.140
0.135
0.115
0.100
0.110
0.100
0.100
0.075
0.075
0.085
0.090
0.090
0.060
0.020
-0.040
-0.110
-0.180
-0.225
-0.285
-0.320
-0.320
-0.250
-0.175
-0.140
-0.155
-0.140
-0.115
-0.080
-0.040
0.005
0.035
0.070
0.080
0.100
0.120
0.145
0.135
0.150
0.165
0.175
0.205
0.220
0.220
0.210
0.185
0.185
0.190
0.205
0.205
0.195
0.170
0.175
0.200
0.210
0.205
0.195
0.190
0.185
0.210
0.215
0.200
0.190
0.195
0.205
0.210
0.220
0.205
0.205
0.190
0.185
0.210
0.225
0.215
0.205
0.195
0.190
0.200
0.210
0.215
0.210
0.205
0.205
0.205
0.225
0.210
0.220
0.195
0.210
0.230
0.240
0.235
0.215
0.210
0.200
0.220
0.240
0.250
0.235
0.220
0.210
0.225
0.225
0.225
0.225
0.215
0.210
0.220
0.230
0.225
0.215
0.210
0.220
0.225
0.225
0.220
0.205
0.210
0.200
0.200
0.215
0.200
0.190
0.185
0.185
0.170
0.190
0.180
0.190
0.185
0.175
0.175
0.180
0.180
0.180
0.180
0.180
0.185
0.195
0.195
0.185
0.165
0.165
0.170
0.180
0.190
0.180
0.170
0.165
0.160
0.175
0.165
0.165
0.145
0.150
0.160
0.170
0.170
0.175
0.150
0.145
0.155
0.165
0.145
0.140
0.135
0.145
0.140
0.165
0.155
0.155
0.135
0.145
0.130
0.145
0.145
0.145
0.135
0.135
0.135
0.135
0.125
0.120
0.120
0.120
0.125
0.135
0.140
0.120
0.125
0.110
0.140
0.155
0.145
0.135
0.140
0.125
0.125
0.135
0.145
0.140
0.125
0.120
0.130
0.135
0.140
0.140
0.135
0.150
0.165
0.195
0.205
0.205
0.200
0.185
0.195
0.215
0.210
0.210
0.180
0.165
0.160
0.165
0.165
0.170
0.150
0.135
0.135
0.135
0.135
0.130
0.125
0.120
0.115
0.125
0.115
0.110
0.095
0.080
0.095
0.100
0.095
0.090
0.075
0.085
0.085
0.085
0.080
0.080
0.070
0.075
0.085
0.090
0.080
0.075
0.060
0.065
0.075
0.085
0.080
0.075
0.055
0.055
0.040
0.045
0.025
0.025
0.035
0.030
0.030
0.000
-0.050
-0.135
-0.220
-0.305
-0.370
-0.380
-0.355
-0.305
-0.270
-0.240
-0.240
-0.205
-0.165
-0.120
-0.115
-0.090
-0.050
0.000
0.010
0.015
0.025
0.055
0.080
0.100
0.105
0.115
0.125
0.145
0.165
0.180
0.155
0.140
0.135
0.120
0.140
0.155
0.160
0.150
0.150
0.155
0.155
0.155
0.150
0.145
0.150
0.155
0.170
0.155
0.150
0.145
0.145
0.155
0.155
0.150
0.150
0.140
0.140
0.140
0.155
0.160
0.155
0.140
0.140
0.145
0.155
0.150
0.140
0.145
0.150
0.155
0.165
0.165
0.160
0.145
0.150
0.150
0.180
0.165
0.170
0.155
0.160
0.160
0.170
0.165
0.155
0.150
0.165
0.170
0.175
0.175
0.175
0.160
0.160
0.155
0.175
0.180
0.175
0.160
0.150
0.150
0.160
0.155
0.150
0.135
0.135
0.145
0.145
0.140
0.135
0.115
0.110
0.135
0.140
0.120
0.110
0.100
0.095
0.100
0.110
0.115
0.100
0.100
0.105
0.110
0.120
0.100
0.085
0.085
0.080
0.105
0.110
0.105
0.090
0.080
0.085
0.105
0.110
0.110
0.110
0.090
0.075
0.110
0.095
0.095
0.095
0.090
0.080
0.095
0.100
0.085
0.085
0.070
0.075
0.075
0.090
0.085
0.075
0.065
0.060
0.075
0.075
0.075
0.065
0.055
0.040
0.055
0.065
0.055
0.065
0.060
0.060
0.055
0.080
0.075
0.065
0.060
0.055
0.060
0.085
0.070
0.060
0.060
0.050
0.060
0.070
0.065
0.060
0.045
0.055
0.075
0.070
0.060
0.060
0.060
0.060
0.090
0.115
0.120
0.140
0.135
0.145
0.150
0.150
0.140
0.135
0.120
0.100
0.085
0.100
0.090
0.090
0.075
0.070
0.085
0.065
0.050
0.055
0.060
0.075
0.075
0.065
0.040
0.035
0.020
0.030
0.030
0.035
0.050
0.035
0.025
0.025
0.030
0.045
0.030
0.035
0.025
0.030
0.035
0.040
0.035
0.030
0.045
0.035
0.045
0.050
0.050
0.035
0.015
0.020
0.020
0.025
0.015
0.020
-0.010
-0.015
-0.030
-0.085
-0.135
-0.225
-0.320
-0.410
-0.465
-0.465
-0.410
-0.355
-0.300
-0.300
-0.300
-0.255
-0.205
-0.185
-0.150
-0.110
-0.060
-0.010
-0.005
0.015
0.025
0.030
0.070
0.080
0.110
0.115
0.120
0.110
0.115
0.120
0.115
0.110
0.105
0.110
0.115
0.120
0.130
0.115
0.105
0.115
0.130
0.130
0.135
0.135
0.120
0.110
0.125
0.130
0.135
0.130
0.135
0.130
0.130
0.145
0.130
0.135
0.130
0.135
0.150
0.155
0.155
0.145
0.145
0.145
0.155
0.160
0.165
0.160
0.155
0.150
0.150
0.165
0.165
0.175
0.155
0.165
0.170
0.185
0.175
0.165
0.170
0.175
0.175
0.190
0.180
0.160
0.165
0.165
0.170
0.185
0.180
0.180
0.175
0.180
0.175
0.185
0.170
0.160
0.155
0.145
0.160
0.150
0.150
0.145
0.140
0.130
0.130
0.140
0.140
0.125
0.100
0.100
0.110
0.115
0.125
0.105
0.115
0.115
0.110
0.120
0.120
0.110
0.105
0.105
0.100
0.120
0.120
0.115
0.115
0.100
0.115
0.120
0.120
0.110
0.110
0.110
0.105
0.120
0.120
0.120
0.100
0.095
0.110
0.115
0.120
0.105
0.095
0.095
0.105
0.115
0.105
0.095
0.090
0.075
0.110
0.105
0.115
0.110
0.085
0.095
0.090
0.095
0.090
0.095
0.090
0.095
0.085
0.095
0.095
0.090
0.090
0.085
0.105
0.100
0.085
0.090
0.080
0.090
0.085
0.110
0.100
0.100
0.100
0.090
0.100
0.095
0.105
0.100
0.095
0.105
0.115
0.125
0.130
0.140
0.125
0.160
0.180
0.175
0.180
0.175
0.150
0.155
0.155
0.155
0.140
0.130
0.115
0.115
0.130
0.135
0.125
0.095
0.090
0.085
0.105
0.120
0.115
0.100
0.080
0.090
0.075
0.090
0.080
0.075
0.075
0.070
0.075
0.080
0.075
0.075
0.070
0.070
0.080
0.070
0.070
0.070
0.050
0.055
0.070
0.085
0.080
0.070
0.060
0.060
0.075
0.080
0.075
0.065
0.065
0.040
0.030
0.050
0.050
0.055
0.035
0.045
0.005
-0.030
-0.115
-0.205
-0.295
-0.355
-0.360
-0.325
-0.265
-0.215
-0.225
-0.215
-0.180
-0.135
-0.110
-0.095
-0.080
-0.045
0.025
0.055
0.070
0.055
0.075
0.100
0.110
0.145
0.155
0.165
0.165
0.160
0.165
0.175
0.165
0.155
0.165
0.165
0.170
0.170
0.180
0.170
0.165
0.175
0.190
0.190
0.185
0.165
0.160
0.175
0.190
0.195
0.180
0.180
0.165
0.175
0.175
0.185
0.185
0.175
0.170
0.160
0.170
0.170
0.175
0.170
0.160
0.170
0.185
0.200
0.185
0.180
0.175
0.175
0.200
0.210
0.200
0.205
0.185
0.190
0.205
0.200
0.200
0.200
0.205
0.205
0.210
0.210
0.210
0.205
0.195
0.205
0.220
0.215
0.205
0.190
0.195
0.190
0.195
0.215
0.210
0.210
0.190
0.190
0.185
0.190
0.200
0.180
0.180
0.170
0.185
0.195
0.185
0.165
0.160
0.155
0.160
0.165
0.175
0.175
0.155
0.145
0.150
0.165
0.160
0.165
0.155
0.165
0.165
0.170
0.175
0.175
0.155
0.160
0.170
0.180
0.170
0.165
0.160
0.160
0.175
0.175
0.170
0.165
0.150
0.155
0.160
0.150
0.150
0.150
0.155
0.145
0.145
0.155
0.150
0.145
0.145
0.140
0.145
0.150
0.140
0.145
0.130
0.135
0.140
0.150
0.145
0.140
0.130
0.140
0.140
0.135
0.135
0.130
0.125
0.125
0.135
0.140
0.145
0.140
0.135
0.125
0.135
0.140
0.140
0.140
0.125
0.125
0.130
0.135
0.125
0.120
0.120
0.120
0.125
0.145
0.130
0.130
0.140
0.150
0.165
0.190
0.190
0.205
0.205
0.195
0.200
0.200
0.200
0.200
0.170
0.155
0.165
0.160
0.160
0.140
0.145
0.135
0.135
0.135
0.130
0.130
0.125
0.115
0.120
0.130
0.115
0.110
0.095
0.100
0.105
0.105
0.100
0.090
0.080
0.085
0.085
0.090
0.090
0.080
0.075
0.070
0.090
0.105
0.090
0.095
0.075
0.080
0.085
0.095
0.090
0.080
0.065
0.070
0.075
0.085
0.075
0.060
0.035
0.035
0.060
0.065
0.060
0.035
-0.005
-0.050
-0.100
-0.175
-0.270
-0.345
-0.385
-0.380
-0.315
-0.250
-0.230
-0.230
-0.210
-0.165
-0.130
-0.095
-0.090
-0.055
-0.030
0.000
0.025
0.045
0.055
0.075
0.105
0.110
0.135
0.155
0.165
0.180
0.165
0.160
0.180
0.180
0.170
0.170
0.145
0.160
0.175
0.180
0.175
0.170
0.170
0.165
0.170
0.175
0.180
0.170
0.165
0.175
0.180
0.175
0.170
0.180
0.170
0.170
0.170
0.195
0.185
0.180
0.175
0.170
0.185
0.190
0.180
0.180
0.170
0.165
0.180
0.195
0.190
0.175
0.175
0.175
0.185
0.205
0.200
0.190
0.185
0.175
0.180
0.195
0.190
0.200
0.195
0.195
0.190
0.200
0.200
0.190
0.180
0.185
0.200
0.210
0.200
0.190
0.180
0.185
0.190
0.195
0.200
0.190
0.190
0.185
0.180
0.195
0.185
0.180
0.170
0.165
0.155
0.175
0.165
0.165
0.140
0.140
0.140
0.150
0.155
0.150
0.150
0.130
0.135
0.135
0.140
0.130
0.125
0.135
0.140
0.140
0.130
0.115
0.115
0.130
0.125
0.140
0.140
0.145
0.130
0.120
0.135
0.135
0.120
0.125
0.120
0.110
0.120
0.145
0.120
0.125
0.110
0.115
0.110
0.120
0.120
0.115
0.095
0.095
0.100
0.110
0.110
0.095
0.085
0.080
0.105
0.100
0.090
0.095
0.075
0.065
0.085
0.090
0.090
0.095
0.075
0.070
0.085
0.090
0.080
0.085
0.070
0.075
0.080
0.085
0.075
0.080
0.065
0.055
0.080
0.080
0.075
0.070
0.060
0.070
0.070
0.075
0.080
0.075
0.065
0.055
0.075
0.085
0.080
0.075
0.070
0.070
0.090
0.105
0.120
0.150
0.150
0.160
0.155
0.165
0.170
0.175
0.160
0.145
0.145
0.130
0.115
0.105
0.100
0.105
0.110
0.115
0.090
0.085
0.065
0.070
0.090
0.095
0.100
0.095
0.075
0.060
0.065
0.060
0.060
0.050
0.035
0.045
0.050
0.065
0.065
0.050
0.045
0.040
0.045
0.060
0.045
0.050
0.035
0.035
0.055
0.060
0.040
0.040
0.040
0.050
0.055
0.060
0.055
0.030
0.025
0.030
0.035
0.035
0.030
0.020
0.015
0.010
-0.015
-0.040
-0.100
-0.170
-0.260
-0.345
-0.415
-0.435
-0.440
-0.420
-0.385
-0.335
-0.290
-0.275
-0.255
-0.220
-0.180
-0.150
-0.135
-0.080
-0.050
-0.015
-0.010
0.015
0.040
0.075
0.090
0.090
0.090
0.125
0.150
0.165
0.170
0.160
0.145
0.145
0.155
0.150
0.160
0.155
0.145
0.155
0.160
0.175
0.170
0.165
0.160
0.165
0.175
0.185
0.180
0.175
0.165
0.165
0.170
0.185
0.200
0.195
0.180
0.170
0.180
0.195
0.190
0.190
0.185
0.185
0.195
0.205
0.195
0.195
0.190
0.190
0.195
0.210
0.205
0.210
0.200
0.205
0.210
0.220
0.215
0.225
0.205
0.210
0.220
0.235
0.235
0.225
0.215
0.220
0.225
0.230
0.235
0.230
0.220
0.230
0.230
0.240
0.240
0.235
0.230
0.225
0.245
0.255
0.250
0.230
0.225
0.235
0.230
0.250
0.240
0.220
0.220
0.210
0.215
0.210
0.195
0.200
0.190
0.185
0.185
0.190
0.190
0.180
0.180
0.170
0.175
0.185
0.195
0.180
0.170
0.170
0.185
0.185
0.180
0.180
0.165
0.175
0.185
0.195
0.175
0.170
0.160
0.165
0.175
0.185
0.185
0.170
0.175
0.180
0.180
0.180
0.175
0.165
0.175
0.165
0.165
0.180
0.170
0.170
0.150
0.145
0.160
0.165
0.160
0.160
0.145
0.150
0.150
0.150
0.135
0.150
0.135
0.120
0.145
0.155
0.140
0.140
0.120
0.115
0.130
0.145
0.140
0.140
0.140
0.120
0.120
0.145
0.135
0.130
0.125
0.115
0.120
0.140
0.135
0.135
0.120
0.125
0.140
0.150
0.150
0.150
0.135
0.135
0.135
0.150
0.150
0.150
0.140
0.140
0.155
0.180
0.195
0.205
0.210
0.220
0.230
0.235
0.235
0.225
0.220
0.195
0.180
0.185
0.160
0.165
0.160
0.170
0.165
0.170
0.155
0.145
0.135
0.135
0.155
0.160
0.155
0.130
0.110
0.105
0.120
0.145
0.125
0.120
0.110
0.105
0.120
0.120
0.110
0.085
0.090
0.100
0.125
0.135
0.125
0.115
0.105
0.110
0.115
0.120
0.110
0.095
0.105
0.105
0.105
0.105
0.095
0.085
0.070
0.055
0.080
0.075
0.060
0.025
-0.020
-0.090
-0.170
-0.255
-0.360
-0.405
-0.415
-0.375
-0.310
-0.255
-0.220
-0.220
-0.210
-0.165
-0.110
-0.075
-0.035
0.015
0.050
0.065
0.095
0.120
0.120
0.125
0.135
0.150
0.170
0.190
0.200
0.190
0.190
0.185
0.195
0.205
0.205
0.205
0.185
0.195
0.200
0.210
0.210
0.195
0.195
0.195
0.210
0.210
0.210
0.205
0.195
0.190
0.200
0.220
0.225
0.220
0.205
0.210
0.210
0.220
0.230
0.215
0.215
0.220
0.225
0.230
0.230
0.220
0.220
0.200
0.235
0.240
0.235
0.235
0.230
0.220
0.240
0.265
0.255
0.245
0.220
0.230
0.245
0.250
0.245
0.230
0.245
0.235
0.250
0.260
0.260
0.245
0.230
0.230
0.250
0.260
0.250
0.245
0.240
0.235
0.255
0.255
0.250
0.260
0.245
0.240
0.240
0.240
0.220
0.215
0.210
0.210
0.215
0.230
0.225
0.210
0.195
0.180
0.180
0.190
0.185
0.190
0.165
0.175
0.190
0.190
0.190
0.180
0.180
0.175
0.185
0.195
0.190
0.180
0.180
0.165
0.180
0.190
0.205
0.185
0.180
0.180
0.180
0.185
0.190
0.175
0.185
0.175
0.180
0.185
0.185
0.185
0.170
0.175
0.180
0.180
0.190
0.175
0.155
0.150
0.160
0.175
0.170
0.165
0.160
0.145
0.155
0.165
0.160
0.150
0.135
0.130
0.145
0.165
0.155
0.150
0.145
0.130
0.145
0.145
0.145
0.145
0.135
0.135
0.145
0.150
0.150
0.145
0.125
0.130
0.135
0.155
0.155
0.130
0.130
0.130
0.135
0.150
0.150
0.160
0.160
0.155
0.185
0.215
0.220
0.215
0.210
0.210
0.195
0.205
0.200
0.200
0.185
0.170
0.175
0.170
0.175
0.175
0.155
0.150
0.150
0.130
0.135
0.135
0.140
0.135
0.135
0.145
0.135
0.120
0.110
0.090
0.110
0.115
0.110
0.115
0.085
0.080
0.085
0.115
0.110
0.100
0.090
0.090
0.105
0.120
0.100
0.100
0.100
0.105
0.120
0.120
0.100
0.100
0.100
0.090
0.105
0.110
0.090
0.060
0.055
0.055
0.085
0.085
0.080
0.055
0.015
-0.035
-0.085
-0.150
-0.225
-0.300
-0.345
-0.335
-0.255
-0.190
-0.175
-0.185
-0.180
-0.130
-0.095
-0.070
-0.040
-0.005
0.020
0.050
0.065
0.085
0.100
0.100
0.110
0.120
0.145
0.175
0.175
0.175
0.155
0.160
0.175
0.175
0.165
0.160
0.160
0.155
0.170
0.180
0.175
0.170
0.160
0.160
0.170
0.175
0.180
0.165
0.155
0.155
0.175
0.190
0.175
0.160
0.160
0.155
0.165
0.180
0.165
0.170
0.145
0.155
0.165
0.165
0.160
0.155
0.155
0.165
0.155
0.180
0.180
0.175
0.165
0.175
0.175
0.190
0.180
0.165
0.165
0.170
0.185
0.200
0.195
0.185
0.180
0.170
0.190
0.190
0.185
0.185
0.180
0.180
0.185
0.195
0.180
0.175
0.165
0.165
0.180
0.185
0.165
0.165
0.145
0.125
0.145
0.170
0.160
0.155
0.130
0.130
0.130
0.145
0.145
0.140
0.125
0.120
0.140
0.140
0.135
0.135
0.135
0.130
0.135
0.150
0.140
0.130
0.125
0.125
0.130
0.140
0.140
0.140
0.115
0.120
0.125
0.145
0.140
0.120
0.125
0.120
0.125
0.135
0.120
0.120
0.105
0.115
0.120
0.140
0.115
0.110
0.090
0.090
0.115
0.110
0.105
0.105
0.090
0.080
0.100
0.090
0.100
0.085
0.075
0.095
0.090
0.095
0.085
0.095
0.080
0.075
0.090
0.110
0.100
0.085
0.075
0.075
0.095
0.095
0.080
0.080
0.080
0.075
0.090
0.090
0.085
0.090
0.075
0.080
0.090
0.085
0.090
0.105
0.105
0.120
0.145
0.165
0.165
0.160
0.150
0.145
0.155
0.155
0.140
0.120
0.100
0.090
0.105
0.110
0.105
0.085
0.070
0.065
0.075
0.090
0.095
0.090
0.075
0.060
0.055
0.060
0.060
0.045
0.040
0.035
0.045
0.055
0.045
0.040
0.025
0.025
0.030
0.055
0.055
0.040
0.035
0.035
0.050
0.050
0.050
0.050
0.035
0.035
0.045
0.045
0.020
0.000
-0.010
0.000
0.005
0.010
-0.005
-0.045
-0.095
-0.140
-0.205
-0.270
-0.360
-0.430
-0.455
-0.430
-0.370
-0.315
-0.295
-0.285
-0.255
-0.190
-0.150
-0.115
-0.065
-0.045
-0.045
-0.025
-0.005
0.030
0.050
0.060
0.070
0.075
0.110
0.135
0.130
0.120
0.105
0.110
0.110
0.115
0.105
0.100
0.100
0.110
0.120
0.125
0.120
0.115
0.105
0.085
0.115
0.140
0.125
0.125
0.105
0.105
0.120
0.130
0.130
0.125
0.120
0.115
0.135
0.130
0.135
0.115
0.110
0.125
0.140
0.145
0.150
0.135
0.125
0.125
0.135
0.165
0.155
0.150
0.135
0.145
0.155
0.165
0.145
0.155
0.145
0.155
0.160
0.170
0.185
0.175
0.155
0.165
0.185
0.180
0.185
0.175
0.175
0.155
0.160
0.180
0.175
0.175
0.160
0.155
0.155
0.155
0.165
0.155
0.150
0.145
0.145
0.155
0.150
0.135
0.120
0.120
0.130
0.135
0.115
0.110
0.110
0.105
0.115
0.115
0.115
0.100
0.095
0.100
0.105
0.110
0.105
0.095
0.095
0.100
0.110
0.125
0.115
0.100
0.090
0.100
0.100
0.120
0.115
0.105
0.095
0.085
0.100
0.100
0.105
0.100
0.080
0.075
0.080
0.095
0.085
0.075
0.075
0.070
0.080
0.085
0.085
0.065
0.065
0.060
0.070
0.085
0.075
0.070
0.055
0.045
0.075
0.070
0.075
0.070
0.065
0.045
0.050
0.070
0.070
0.065
0.055
0.055
0.065
0.065
0.070
0.060
0.050
0.065
0.075
0.075
0.070
0.065
0.055
0.050
0.075
0.100
0.110
0.115
0.145
0.155
0.145
0.150
0.160
0.150
0.150
0.130
0.130
0.125
0.110
0.090
0.090
0.080
0.085
0.080
0.070
0.070
0.065
0.065
0.075
0.070
0.065
0.045
0.035
0.040
0.050
0.060
0.045
0.040
0.035
0.035
0.045
0.045
0.045
0.030
0.035
0.030
0.040
0.045
0.040
0.035
0.030
0.030
0.035
0.040
0.040
0.030
0.030
0.015
0.000
0.015
0.005
0.005
-0.010
-0.030
-0.050
-0.075
-0.150
-0.215
-0.320
-0.410
-0.460
-0.475
-0.455
-0.410
-0.370
-0.345
-0.310
-0.275
-0.230
-0.200
-0.160
-0.120
-0.080
-0.025
-0.005
0.010
0.010
0.040
0.060
0.080
0.085
0.100
0.120
0.130
0.140
0.135
0.115
0.120
0.115
0.105
0.130
0.140
0.125
0.125
0.125
0.125
0.145
0.155
0.160
0.145
0.155
0.145
0.150
0.155
0.145
0.145
0.140
0.140
0.145
0.155
0.160
0.145
0.140
0.135
0.150
0.160
0.160
0.155
0.150
0.150
0.165
0.180
0.155
0.140
0.155
0.160
0.175
0.175
0.175
0.185
0.165
0.170
0.170
0.185
0.190
0.190
0.170
0.165
0.165
0.200
0.190
0.195
0.195
0.180
0.180
0.190
0.200
0.190
0.185
0.190
0.195
0.200
0.195
0.180
0.175
0.170
0.170
0.185
0.175
0.170
0.155
0.135
0.145
0.145
0.145
0.140
0.140
0.140
0.135
0.150
0.135
0.120
0.115
0.115
0.135
0.150
0.135
0.135
0.120
0.120
0.140
0.150
0.145
0.135
0.125
0.125
0.135
0.135
0.130
0.130
0.135
0.135
0.140
0.145
0.125
0.135
0.115
0.120
0.130
0.125
0.130
0.120
0.110
0.115
0.115
0.120
0.125
0.120
0.110
0.110
0.115
0.110
0.090
0.095
0.090
0.090
0.095
0.110
0.090
0.095
0.095
0.090
0.110
0.120
0.100
0.105
0.080
0.080
0.095
0.110
0.100
0.095
0.090
0.080
0.090
0.095
0.110
0.100
0.090
0.100
0.110
0.120
0.110
0.100
0.095
0.095
0.115
0.130
0.130
0.130
0.155
0.170
0.190
0.195
0.190
0.185
0.165
0.145
0.150
0.150
0.130
0.135
0.125
0.125
0.115
0.115
0.095
0.080
0.090
0.100
0.105
0.115
0.090
0.075
0.070
0.060
0.095
0.090
0.085
0.070
0.055
0.055
0.075
0.070
0.080
0.075
0.070
0.065
0.070
0.075
0.065
0.070
0.060
0.065
0.070
0.065
0.060
0.050
0.050
0.040
0.045
0.055
0.040
0.035
0.030
0.015
0.005
-0.035
-0.115
-0.200
-0.315
-0.395
-0.415
-0.380
-0.305
-0.260
-0.245
-0.230
-0.165
-0.135
-0.110
-0.090
-0.050
-0.005
0.030
0.065
0.070
0.080
0.090
0.115
0.130
0.160
0.175
0.165
0.160
0.160
0.165
0.160
0.180
0.175
0.165
0.160
0.160
0.175
0.165
0.165
0.160
0.165
0.175
0.185
0.180
0.170
0.165
0.165
0.175
0.195
0.190
0.180
0.185
0.175
0.190
0.190
0.190
0.175
0.175
0.170
0.185
0.195
0.185
0.175
0.170
0.185
0.200
0.210
0.195
0.185
0.170
0.175
0.195
0.215
0.210
0.200
0.195
0.200
0.205
0.210
0.215
0.205
0.200
0.210
0.225
0.220
0.215
0.210
0.195
0.200
0.220
0.220
0.225
0.210
0.215
0.200
0.215
0.220
0.215
0.215
0.195
0.190
0.210
0.210
0.200
0.195
0.195
0.180
0.190
0.195
0.190
0.180
0.175
0.165
0.185
0.180
0.175
0.160
0.160
0.155
0.170
0.180
0.160
0.160
0.155
0.165
0.175
0.180
0.170
0.170
0.150
0.145
0.165
0.180
0.170
0.170
0.165
0.150
0.155
0.170
0.140
0.135
0.145
0.145
0.140
0.170
0.140
0.135
0.130
0.135
0.145
0.150
0.140
0.120
0.115
0.130
0.130
0.130
0.120
0.120
0.115
0.115
0.130
0.145
0.125
0.115
0.105
0.115
0.120
0.130
0.120
0.115
0.120
0.100
0.115
0.120
0.120
0.125
0.105
0.095
0.110
0.125
0.110
0.110
0.095
0.090
0.110
0.120
0.110
0.105
0.105
0.110
0.115
0.125
0.110
0.120
0.115
0.110
0.150
0.175
0.185
0.200
0.200
0.180
0.195
0.195
0.190
0.185
0.180
0.160
0.170
0.155
0.160
0.155
0.135
0.135
0.130
0.135
0.135
0.120
0.125
0.110
0.125
0.120
0.095
0.085
0.080
0.085
0.090
0.100
0.090
0.085
0.070
0.085
0.080
0.095
0.090
0.070
0.070
0.055
0.070
0.085
0.080
0.075
0.070
0.070
0.075
0.080
0.085
0.070
0.060
0.055
0.060
0.065
0.045
0.040
0.030
0.040
0.060
0.055
0.020
-0.020
-0.070
-0.125
-0.195
-0.255
-0.335
-0.365
-0.345
-0.280
-0.215
-0.195
-0.195
-0.180
-0.155
-0.120
-0.075
-0.030
0.000
0.005
0.015
0.030
0.055
0.080
0.095
0.085
0.090
0.110
0.130
0.160
0.155
0.140
0.140
0.130
0.145
0.150
0.150
0.145
0.125
0.125
0.150
0.155
0.150
0.150
0.135
0.135
0.135
0.145
