 Sample Value
-0.285
-0.285
-0.285
-0.285
-0.285
-0.285
-0.285
-0.285
-0.290
-0.295
-0.290
-0.295
-0.280
-0.270
-0.250
-0.220
-0.195
-0.210
-0.210
-0.200
-0.225
-0.235
-0.255
-0.260
-0.265
-0.280
-0.275
-0.290
-0.285
-0.295
-0.300
-0.305
-0.300
-0.315
-0.335
-0.350
-0.350
-0.355
-0.350
-0.335
-0.335
-0.345
-0.345
-0.345
-0.360
-0.365
-0.370
-0.375
-0.375
-0.360
-0.350
-0.345
-0.340
-0.345
-0.365
-0.360
-0.375
-0.380
-0.380
-0.390
-0.385
-0.380
-0.365
-0.355
-0.325
-0.320
-0.300
-0.270
-0.230
-0.175
-0.115
-0.015
0.090
0.200
0.300
0.375
0.380
0.290
0.130
-0.105
-0.325
-0.535
-0.700
-0.825
-0.920
-0.985
-1.025
-1.050
-1.025
-0.985
-0.915
-0.805
-0.690
-0.570
-0.460
-0.360
-0.290
-0.245
-0.210
-0.185
-0.185
-0.170
-0.185
-0.180
-0.175
-0.175
-0.165
-0.160
-0.155
-0.150
-0.145
-0.125
-0.105
-0.100
-0.105
-0.100
-0.090
-0.090
-0.090
-0.090
-0.070
-0.065
-0.050
-0.035
-0.015
0.005
0.000
0.010
0.005
0.010
0.030
0.035
0.060
0.065
0.090
0.110
0.140
0.135
0.155
0.175
0.180
0.195
0.200
0.220
0.250
0.270
0.290
0.330
0.355
0.385
0.390
0.400
0.400
0.400
0.415
0.415
0.435
0.435
0.460
0.465
0.475
0.475
0.470
0.465
0.460
0.450
0.440
0.415
0.410
0.400
0.390
0.375
0.360
0.320
0.290
0.255
0.215
0.180
0.140
0.095
0.085
0.065
0.025
0.000
-0.015
-0.035
-0.065
-0.085
-0.115
-0.140
-0.160
-0.165
-0.180
-0.200
-0.200
-0.200
-0.205
-0.200
-0.195
-0.225
-0.230
-0.225
-0.230
-0.240
-0.235
-0.230
-0.230
-0.220
-0.225
-0.205
-0.215
-0.220
-0.225
-0.235
-0.240
-0.245
-0.240
-0.240
-0.235
-0.225
-0.220
-0.220
-0.235
-0.240
-0.240
-0.260
-0.260
-0.275
-0.265
-0.260
-0.255
-0.255
-0.240
-0.245
-0.255
-0.260
-0.270
-0.285
-0.285
-0.300
-0.295
-0.290
-0.290
-0.285
-0.275
-0.290
-0.300
-0.305
-0.310
-0.305
-0.340
-0.325
-0.335
-0.335
-0.325
-0.325
-0.310
-0.315
-0.320
-0.330
-0.325
-0.340
-0.345
-0.350
-0.340
-0.340
-0.330
-0.330
-0.325
-0.335
-0.335
-0.330
-0.330
-0.335
-0.350
-0.345
-0.335
-0.320
-0.295
-0.285
-0.270
-0.255
-0.250
-0.245
-0.250
-0.245
-0.240
-0.235
-0.230
-0.210
-0.200
-0.195
-0.200
-0.200
-0.225
-0.230
-0.245
-0.270
-0.285
-0.285
-0.285
-0.305
-0.295
-0.300
-0.295
-0.300
-0.305
-0.315
-0.320
-0.330
-0.355
-0.365
-0.365
-0.355
-0.360
-0.355
-0.350
-0.335
-0.345
-0.350
-0.360
-0.365
-0.360
-0.375
-0.365
-0.360
-0.340
-0.355
-0.345
-0.325
-0.335
-0.335
-0.330
-0.340
-0.340
-0.340
-0.325
-0.310
-0.305
-0.280
-0.255
-0.215
-0.185
-0.130
-0.075
-0.005
0.095
0.190
0.300
0.375
0.410
0.375
0.270
0.095
-0.100
-0.285
-0.455
-0.615
-0.730
-0.850
-0.945
-1.000
-1.040
-1.035
-0.985
-0.885
-0.795
-0.660
-0.540
-0.430
-0.355
-0.295
-0.260
-0.250
-0.230
-0.225
-0.205
-0.195
-0.190
-0.190
-0.190
-0.185
-0.190
-0.195
-0.180
-0.165
-0.155
-0.145
-0.135
-0.120
-0.135
-0.130
-0.125
-0.130
-0.125
-0.130
-0.120
-0.120
-0.105
-0.090
-0.070
-0.060
-0.050
-0.050
-0.040
-0.050
-0.040
-0.030
-0.020
0.000
0.020
0.040
0.065
0.080
0.100
0.100
0.125
0.125
0.150
0.155
0.180
0.195
0.220
0.250
0.265
0.280
0.295
0.315
0.320
0.320
0.320
0.330
0.340
0.350
0.360
0.380
0.380
0.395
0.375
0.375
0.375
0.355
0.330
0.315
0.310
0.295
0.280
0.255
0.235
0.205
0.170
0.145
0.105
0.070
0.040
-0.005
-0.025
-0.050
-0.075
-0.090
-0.105
-0.125
-0.150
-0.160
-0.180
-0.210
-0.225
-0.235
-0.255
-0.245
-0.250
-0.250
-0.245
-0.245
-0.260
-0.255
-0.255
-0.275
-0.265
-0.280
-0.275
-0.275
-0.270
-0.265
-0.250
-0.250
-0.255
-0.255
-0.265
-0.270
-0.265
-0.275
-0.270
-0.270
-0.280
-0.260
-0.255
-0.245
-0.270
-0.275
-0.265
-0.275
-0.295
-0.290
-0.300
-0.295
-0.290
-0.285
-0.275
-0.275
-0.285
-0.290
-0.305
-0.315
-0.320
-0.330
-0.320
-0.330
-0.320
-0.325
-0.325
-0.315
-0.320
-0.315
-0.335
-0.345
-0.355
-0.360
-0.355
-0.345
-0.350
-0.330
-0.330
-0.325
-0.315
-0.335
-0.330
-0.350
-0.355
-0.360
-0.355
-0.340
-0.335
-0.330
-0.305
-0.290
-0.300
-0.285
-0.290
-0.275
-0.290
-0.285
-0.265
-0.265
-0.250
-0.235
-0.220
-0.220
-0.230
-0.235
-0.255
-0.265
-0.295
-0.310
-0.325
-0.320
-0.330
-0.310
-0.320
-0.320
-0.325
-0.345
-0.350
-0.355
-0.365
-0.375
-0.365
-0.395
-0.385
-0.385
-0.375
-0.380
-0.380
-0.380
-0.385
-0.395
-0.400
-0.405
-0.395
-0.395
-0.385
-0.380
-0.375
-0.360
-0.370
-0.365
-0.370
-0.380
-0.395
-0.395
-0.390
-0.375
-0.370
-0.365
-0.345
-0.335
-0.330
-0.310
-0.275
-0.240
-0.180
-0.120
-0.020
0.080
0.195
0.280
0.345
0.335
0.225
0.065
-0.145
-0.370
-0.560
-0.710
-0.815
-0.925
-1.015
-1.090
-1.080
-1.075
-1.055
-0.975
-0.880
-0.770
-0.660
-0.555
-0.445
-0.365
-0.315
-0.280
-0.265
-0.250
-0.250
-0.230
-0.240
-0.245
-0.235
-0.230
-0.220
-0.205
-0.185
-0.180
-0.175
-0.165
-0.165
-0.155
-0.150
-0.155
-0.155
-0.145
-0.125
-0.110
-0.100
-0.090
-0.070
-0.055
-0.050
-0.025
-0.035
-0.020
-0.005
0.005
0.015
0.030
0.045
0.060
0.090
0.115
0.135
0.145
0.155
0.180
0.185
0.210
0.215
0.245
0.275
0.315
0.330
0.355
0.360
0.375
0.370
0.385
0.410
0.395
0.410
0.415
0.435
0.435
0.440
0.445
0.440
0.430
0.415
0.390
0.370
0.340
0.340
0.320
0.310
0.270
0.255
0.230
0.185
0.155
0.125
0.065
0.015
-0.015
-0.040
-0.060
-0.080
-0.100
-0.115
-0.135
-0.155
-0.175
-0.205
-0.225
-0.235
-0.250
-0.250
-0.260
-0.255
-0.245
-0.240
-0.250
-0.255
-0.260
-0.260
-0.270
-0.280
-0.270
-0.285
-0.285
-0.265
-0.260
-0.245
-0.240
-0.240
-0.235
-0.245
-0.245
-0.260
-0.265
-0.265
-0.260
-0.260
-0.240
-0.235
-0.225
-0.230
-0.235
-0.250
-0.240
-0.265
-0.260
-0.250
-0.250
-0.245
-0.255
-0.240
-0.250
-0.230
-0.245
-0.250
-0.260
-0.275
-0.275
-0.270
-0.280
-0.270
-0.270
-0.255
-0.270
-0.270
-0.280
-0.280
-0.290
-0.300
-0.305
-0.305
-0.315
-0.310
-0.300
-0.285
-0.285
-0.295
-0.290
-0.295
-0.300
-0.295
-0.305
-0.310
-0.295
-0.295
-0.275
-0.260
-0.260
-0.250
-0.245
-0.230
-0.250
-0.240
-0.240
-0.240
-0.220
-0.205
-0.205
-0.185
-0.175
-0.180
-0.175
-0.195
-0.215
-0.230
-0.260
-0.270
-0.270
-0.275
-0.280
-0.285
-0.295
-0.305
-0.315
-0.325
-0.340
-0.335
-0.350
-0.345
-0.360
-0.360
-0.360
-0.350
-0.345
-0.360
-0.365
-0.360
-0.370
-0.370
-0.365
-0.375
-0.370
-0.355
-0.350
-0.345
-0.335
-0.345
-0.345
-0.335
-0.355
-0.360
-0.370
-0.350
-0.355
-0.345
-0.320
-0.325
-0.305
-0.280
-0.255
-0.220
-0.175
-0.125
-0.070
0.025
0.130
0.230
0.305
0.335
0.280
0.140
-0.045
-0.255
-0.470
-0.630
-0.790
-0.900
-1.010
-1.080
-1.130
-1.120
-1.085
-1.025
-0.945
-0.830
-0.705
-0.575
-0.455
-0.355
-0.285
-0.250
-0.230
-0.215
-0.205
-0.205
-0.190
-0.180
-0.180
-0.180
-0.160
-0.165
-0.140
-0.125
-0.115
-0.095
-0.085
-0.085
-0.075
-0.070
-0.080
-0.065
-0.065
-0.055
-0.040
-0.030
-0.030
-0.005
0.005
0.030
0.030
0.025
0.030
0.035
0.055
0.070
0.090
0.105
0.125
0.155
0.165
0.190
0.210
0.220
0.225
0.255
0.265
0.275
0.315
0.335
0.370
0.380
0.415
0.420
0.440
0.440
0.450
0.460
0.465
0.480
0.495
0.510
0.500
0.510
0.515
0.500
0.505
0.475
0.465
0.440
0.415
0.380
0.370
0.340
0.330
0.300
0.265
0.235
0.190
0.155
0.115
0.065
0.025
-0.005
-0.030
-0.055
-0.075
-0.100
-0.120
-0.150
-0.165
-0.185
-0.190
-0.210
-0.235
-0.235
-0.235
-0.245
-0.230
-0.230
-0.250
-0.240
-0.250
-0.255
-0.255
-0.250
-0.260
-0.255
-0.235
-0.240
-0.235
-0.225
-0.230
-0.230
-0.235
-0.230
-0.245
-0.260
-0.255
-0.245
-0.245
-0.230
-0.220
-0.215
-0.230
-0.220
-0.240
-0.260
-0.255
-0.265
-0.265
-0.265
-0.260
-0.255
-0.255
-0.260
-0.245
-0.260
-0.250
-0.265
-0.270
-0.285
-0.275
-0.275
-0.280
-0.270
-0.295
-0.280
-0.300
-0.305
-0.315
-0.320
-0.330
-0.340
-0.340
-0.335
-0.335
-0.335
-0.320
-0.310
-0.320
-0.320
-0.325
-0.330
-0.345
-0.340
-0.335
-0.320
-0.305
-0.290
-0.280
-0.285
-0.250
-0.260
-0.260
-0.255
-0.250
-0.260
-0.250
-0.235
-0.235
-0.225
-0.220
-0.235
-0.235
-0.265
-0.280
-0.305
-0.300
-0.315
-0.320
-0.325
-0.330
-0.335
-0.330
-0.325
-0.335
-0.345
-0.350
-0.380
-0.375
-0.380
-0.395
-0.385
-0.380
-0.370
-0.355
-0.360
-0.360
-0.350
-0.360
-0.365
-0.380
-0.375
-0.370
-0.365
-0.360
-0.355
-0.340
-0.340
-0.340
-0.335
-0.335
-0.330
-0.330
-0.330
-0.320
-0.300
-0.280
-0.230
-0.190
-0.125
-0.050
0.020
0.130
0.220
0.310
0.360
0.350
0.260
0.130
-0.055
-0.250
-0.430
-0.570
-0.710
-0.805
-0.935
-1.000
-1.020
-1.020
-0.965
-0.890
-0.765
-0.635
-0.495
-0.380
-0.310
-0.260
-0.245
-0.240
-0.235
-0.225
-0.210
-0.205
-0.185
-0.180
-0.160
-0.145
-0.135
-0.140
-0.140
-0.150
-0.135
-0.150
-0.125
-0.125
-0.105
-0.095
-0.085
-0.065
-0.080
-0.070
-0.060
-0.065
-0.050
-0.045
-0.045
-0.025
-0.005
0.005
0.040
0.045
0.050
0.055
0.070
0.070
0.095
0.105
0.110
0.130
0.165
0.190
0.220
0.240
0.245
0.260
0.260
0.275
0.285
0.295
0.310
0.335
0.345
0.375
0.375
0.380
0.380
0.375
0.380
0.365
0.365
0.375
0.360
0.365
0.360
0.355
0.355
0.335
0.315
0.295
0.275
0.235
0.215
0.180
0.160
0.135
0.130
0.095
0.065
0.050
0.005
-0.010
-0.050
-0.075
-0.100
-0.115
-0.125
-0.140
-0.140
-0.160
-0.175
-0.165
-0.175
-0.180
-0.200
-0.210
-0.215
-0.205
-0.205
-0.215
-0.190
-0.195
-0.190
-0.190
-0.195
-0.205
-0.205
-0.205
-0.200
-0.215
-0.205
-0.210
-0.205
-0.180
-0.200
-0.185
-0.190
-0.200
-0.210
-0.225
-0.230
-0.230
-0.225
-0.220
-0.220
-0.215
-0.210
-0.210
-0.220
-0.215
-0.215
-0.215
-0.235
-0.235
-0.245
-0.240
-0.225
-0.230
-0.225
-0.230
-0.230
-0.225
-0.245
-0.255
-0.270
-0.265
-0.260
-0.275
-0.260
-0.265
-0.270
-0.265
-0.280
-0.280
-0.290
-0.305
-0.295
-0.305
-0.310
-0.300
-0.300
-0.290
-0.275
-0.280
-0.275
-0.290
-0.270
-0.285
-0.285
-0.270
-0.260
-0.235
-0.230
-0.220
-0.220
-0.210
-0.210
-0.210
-0.210
-0.215
-0.220
-0.225
-0.230
-0.250
-0.250
-0.255
-0.255
-0.250
-0.265
-0.270
-0.275
-0.285
-0.300
-0.310
-0.305
-0.295
-0.285
-0.300
-0.295
-0.300
-0.305
-0.315
-0.320
-0.320
-0.340
-0.355
-0.345
-0.335
-0.325
-0.315
-0.310
-0.315
-0.305
-0.315
-0.330
-0.325
-0.340
-0.320
-0.315
-0.320
-0.310
-0.295
-0.285
-0.280
-0.270
-0.275
-0.275
-0.275
-0.275
-0.255
-0.215
-0.155
-0.105
-0.020
0.065
0.175
0.265
0.370
0.420
0.400
0.325
0.165
-0.020
-0.225
-0.390
-0.540
-0.655
-0.770
-0.875
-0.940
-0.995
-0.995
-0.965
-0.900
-0.785
-0.660
-0.520
-0.405
-0.305
-0.230
-0.205
-0.180
-0.185
-0.180
-0.180
-0.175
-0.160
-0.140
-0.125
-0.115
-0.100
-0.095
-0.090
-0.080
-0.080
-0.090
-0.085
-0.075
-0.065
-0.050
-0.050
-0.020
-0.005
0.005
0.005
0.025
0.015
0.030
0.030
0.040
0.055
0.055
0.075
0.110
0.125
0.145
0.155
0.160
0.170
0.185
0.190
0.205
0.230
0.255
0.270
0.290
0.320
0.340
0.335
0.355
0.365
0.370
0.375
0.385
0.395
0.405
0.425
0.430
0.445
0.445
0.450
0.435
0.425
0.425
0.405
0.405
0.405
0.385
0.380
0.375
0.360
0.335
0.315
0.285
0.245
0.205
0.170
0.145
0.115
0.100
0.070
0.030
0.015
-0.005
-0.030
-0.065
-0.095
-0.120
-0.145
-0.155
-0.170
-0.185
-0.180
-0.195
-0.195
-0.185
-0.205
-0.210
-0.230
-0.225
-0.235
-0.240
-0.260
-0.245
-0.250
-0.235
-0.225
-0.230
-0.235
-0.220
-0.230
-0.235
-0.245
-0.240
-0.235
-0.225
-0.220
-0.205
-0.210
-0.210
-0.205
-0.205
-0.215
-0.230
-0.225
-0.230
-0.230
-0.220
-0.220
-0.225
-0.205
-0.195
-0.210
-0.210
-0.225
-0.230
-0.245
-0.245
-0.235
-0.235
-0.230
-0.220
-0.220
-0.220
-0.215
-0.215
-0.220
-0.235
-0.245
-0.235
-0.245
-0.240
-0.230
-0.225
-0.205
-0.205
-0.225
-0.215
-0.225
-0.230
-0.230
-0.235
-0.230
-0.220
-0.205
-0.220
-0.205
-0.195
-0.185
-0.180
-0.175
-0.170
-0.165
-0.165
-0.160
-0.150
-0.150
-0.145
-0.120
-0.120
-0.110
-0.125
-0.125
-0.135
-0.155
-0.170
-0.190
-0.195
-0.205
-0.195
-0.195
-0.190
-0.190
-0.205
-0.220
-0.245
-0.255
-0.255
-0.260
-0.255
-0.260
-0.255
-0.255
-0.270
-0.275
-0.285
-0.290
-0.290
-0.295
-0.295
-0.285
-0.280
-0.255
-0.250
-0.220
-0.205
-0.210
-0.195
-0.195
-0.180
-0.175
-0.160
-0.145
-0.120
-0.100
-0.070
-0.035
-0.030
-0.015
-0.005
0.010
0.015
0.035
0.035
0.065
0.120
0.180
0.260
0.345
0.440
0.540
0.655
0.770
0.850
0.875
0.850
0.750
0.595
0.420
0.270
0.150
0.040
-0.070
-0.185
-0.315
-0.430
-0.500
-0.555
-0.555
-0.515
-0.445
-0.390
-0.315
-0.265
-0.240
-0.230
-0.225
-0.230
-0.250
-0.255
-0.245
-0.240
-0.225
-0.220
-0.200
-0.195
-0.190
-0.200
-0.225
-0.210
-0.215
-0.215
-0.205
-0.205
-0.185
-0.185
-0.180
-0.165
-0.170
-0.190
-0.195
-0.205
-0.195
-0.200
-0.165
-0.180
-0.175
-0.165
-0.160
-0.140
-0.145
-0.150
-0.160
-0.170
-0.155
-0.155
-0.155
-0.140
-0.130
-0.120
-0.100
-0.085
-0.095
-0.080
-0.075
-0.085
-0.065
-0.070
-0.055
-0.035
-0.025
0.000
0.000
0.025
0.015
0.035
0.035
0.035
0.035
0.045
0.050
0.070
0.085
0.095
0.090
0.095
0.090
0.060
0.055
0.040
0.030
0.005
-0.010
-0.025
-0.035
-0.040
-0.050
-0.070
-0.090
-0.095
-0.110
-0.135
-0.160
-0.165
-0.170
-0.170
-0.180
-0.190
-0.170
-0.175
-0.180
-0.190
-0.200
-0.215
-0.220
-0.225
-0.225
-0.225
-0.210
-0.220
-0.200
-0.200
-0.215
-0.210
-0.210
-0.210
-0.235
-0.230
-0.225
-0.230
-0.215
-0.215
-0.205
-0.205
-0.200
-0.205
-0.200
-0.210
-0.220
-0.225
-0.225
-0.210
-0.205
-0.215
-0.215
-0.195
-0.195
-0.210
-0.215
-0.230
-0.225
-0.235
-0.230
-0.240
-0.235
-0.225
-0.225
-0.215
-0.220
-0.215
-0.230
-0.240
-0.250
-0.260
-0.255
-0.255
-0.255
-0.245
-0.235
-0.240
-0.235
-0.240
-0.260
-0.255
-0.270
-0.275
-0.270
-0.265
-0.260
-0.255
-0.240
-0.230
-0.220
-0.215
-0.230
-0.220
-0.220
-0.195
-0.190
-0.180
-0.185
-0.165
-0.150
-0.155
-0.135
-0.130
-0.135
-0.150
-0.150
-0.175
-0.175
-0.195
-0.200
-0.195
-0.200
-0.180
-0.195
-0.195
-0.215
-0.220
-0.245
-0.235
-0.230
-0.240
-0.240
-0.240
-0.240
-0.250
-0.260
-0.260
-0.270
-0.260
-0.270
-0.270
-0.265
-0.250
-0.215
-0.210
-0.200
-0.180
-0.165
-0.140
-0.140
-0.125
-0.115
-0.110
-0.080
-0.050
-0.020
0.000
0.030
0.035
0.065
0.075
0.080
0.110
0.150
0.205
0.285
0.370
0.490
0.615
0.740
0.860
0.930
0.920
0.805
0.640
0.415
0.220
0.045
-0.110
-0.205
-0.315
-0.410
-0.490
-0.545
-0.550
-0.545
-0.500
-0.445
-0.380
-0.305
-0.260
-0.235
-0.215
-0.215
-0.220
-0.225
-0.230
-0.230
-0.230
-0.225
-0.230
-0.220
-0.225
-0.220
-0.225
-0.205
-0.205
-0.205
-0.195
-0.200
-0.215
-0.205
-0.210
-0.205
-0.205
-0.190
-0.175
-0.155
-0.150
-0.140
-0.160
-0.160
-0.165
-0.175
-0.170
-0.160
-0.150
-0.145
-0.130
-0.125
-0.120
-0.115
-0.105
-0.120
-0.115
-0.110
-0.105
-0.090
-0.090
-0.070
-0.055
-0.035
-0.025
-0.020
-0.010
0.005
0.015
0.015
0.020
0.035
0.055
0.060
0.085
0.100
0.130
0.120
0.135
0.130
0.130
0.125
0.130
0.145
0.145
0.165
0.165
0.165
0.160
0.155
0.145
0.125
0.100
0.080
0.060
0.050
0.035
0.030
0.015
0.005
0.005
-0.015
-0.030
-0.060
-0.070
-0.075
-0.105
-0.095
-0.095
-0.110
-0.105
-0.115
-0.095
-0.100
-0.115
-0.125
-0.130
-0.140
-0.140
-0.155
-0.145
-0.140
-0.135
-0.135
-0.130
-0.120
-0.140
-0.145
-0.145
-0.160
-0.160
-0.165
-0.165
-0.155
-0.150
-0.145
-0.135
-0.150
-0.145
-0.170
-0.165
-0.180
-0.180
-0.175
-0.180
-0.175
-0.175
-0.170
-0.165
-0.170
-0.170
-0.175
-0.180
-0.190
-0.195
-0.215
-0.200
-0.195
-0.190
-0.190
-0.180
-0.175
-0.190
-0.200
-0.215
-0.210
-0.225
-0.220
-0.220
-0.210
-0.200
-0.205
-0.190
-0.195
-0.200
-0.215
-0.200
-0.210
-0.215
-0.220
-0.210
-0.210
-0.200
-0.190
-0.190
-0.190
-0.180
-0.185
-0.190
-0.210
-0.215
-0.205
-0.205
-0.190
-0.190
-0.180
-0.165
-0.170
-0.150
-0.145
-0.145
-0.145
-0.135
-0.110
-0.105
-0.095
-0.065
-0.060
-0.050
-0.055
-0.040
-0.065
-0.090
-0.110
-0.145
-0.160
-0.165
-0.160
-0.155
-0.160
-0.150
-0.160
-0.165
-0.175
-0.190
-0.200
-0.215
-0.225
-0.235
-0.225
-0.230
-0.230
-0.220
-0.225
-0.225
-0.210
-0.220
-0.215
-0.215
-0.205
-0.190
-0.170
-0.145
-0.120
-0.105
-0.095
-0.070
-0.050
-0.040
-0.010
-0.010
0.025
0.040
0.065
0.090
0.110
0.145
0.170
0.225
0.280
0.345
0.435
0.545
0.655
0.770
0.860
0.890
0.835
0.695
0.505
0.290
0.105
-0.045
-0.150
-0.235
-0.340
-0.430
-0.495
-0.550
-0.565
-0.535
-0.515
-0.435
-0.370
-0.300
-0.255
-0.230
-0.220
-0.210
-0.210
-0.205
-0.210
-0.205
-0.205
-0.205
-0.205
-0.215
-0.210
-0.215
-0.220
-0.230
-0.210
-0.190
-0.190
-0.185
-0.195
-0.190
-0.180
-0.195
-0.205
-0.200
-0.205
-0.195
-0.180
-0.175
-0.160
-0.165
-0.160
-0.165
-0.160
-0.155
-0.155
-0.150
-0.140
-0.120
-0.115
-0.095
-0.085
-0.080
-0.075
-0.070
-0.060
-0.060
-0.060
-0.055
-0.040
-0.035
-0.020
0.000
0.025
0.030
0.035
0.035
0.045
0.040
0.045
0.050
0.055
0.060
0.070
0.080
0.095
0.115
0.105
0.105
0.100
0.110
0.100
0.095
0.095
0.090
0.085
0.080
0.075
0.065
0.045
0.015
0.010
-0.020
-0.040
-0.060
-0.085
-0.090
-0.100
-0.110
-0.105
-0.120
-0.130
-0.140
-0.145
-0.160
-0.165
-0.165
-0.190
-0.195
-0.190
-0.180
-0.180
-0.170
-0.185
-0.185
-0.175
-0.185
-0.195
-0.195
-0.200
-0.200
-0.190
-0.175
-0.170
-0.170
-0.175
-0.185
-0.180
-0.175
-0.175
-0.180
-0.180
-0.175
-0.180
-0.180
-0.175
-0.170
-0.175
-0.180
-0.185
-0.190
-0.200
-0.215
-0.220
-0.225
-0.220
-0.210
-0.210
-0.200
-0.210
-0.230
-0.220
-0.230
-0.245
-0.240
-0.245
-0.240
-0.230
-0.230
-0.225
-0.240
-0.225
-0.240
-0.260
-0.260
-0.265
-0.270
-0.275
-0.270
-0.265
-0.255
-0.235
-0.250
-0.240
-0.255
-0.265
-0.265
-0.275
-0.280
-0.295
-0.270
-0.265
-0.265
-0.250
-0.250
-0.240
-0.240
-0.225
-0.215
-0.225
-0.225
-0.220
-0.205
-0.200
-0.200
-0.165
-0.165
-0.170
-0.175
-0.195
-0.205
-0.215
-0.225
-0.240
-0.240
-0.255
-0.245
-0.255
-0.255
-0.260
-0.270
-0.270
-0.290
-0.300
-0.300
-0.315
-0.325
-0.325
-0.325
-0.330
-0.320
-0.320
-0.310
-0.320
-0.315
-0.315
-0.315
-0.315
-0.295
-0.280
-0.255
-0.230
-0.210
-0.190
-0.175
-0.165
-0.155
-0.140
-0.130
-0.110
-0.085
-0.065
-0.045
-0.015
0.010
0.025
0.040
0.060
0.095
0.140
0.195
0.265
0.360
0.485
0.610
0.745
0.890
0.945
0.905
0.815
0.650
0.455
0.270
0.125
-0.015
-0.105
-0.225
-0.330
-0.435
-0.520
-0.580
-0.585
-0.570
-0.520
-0.445
-0.370
-0.300
-0.260
-0.235
-0.220
-0.215
-0.225
-0.235
-0.235
-0.235
-0.240
-0.240
-0.240
-0.240
-0.230
-0.230
-0.225
-0.220
-0.225
-0.225
-0.220
-0.230
-0.240
-0.255
-0.250
-0.245
-0.245
-0.235
-0.230
-0.220
-0.230
-0.225
-0.215
-0.235
-0.240
-0.235
-0.235
-0.225
-0.230
-0.215
-0.195
-0.190
-0.190
-0.195
-0.185
-0.190
-0.195
-0.195
-0.180
-0.180
-0.160
-0.145
-0.120
-0.110
-0.105
-0.100
-0.080
-0.085
-0.080
-0.080
-0.060
-0.040
-0.040
-0.020
-0.015
-0.005
0.005
0.015
0.020
0.005
0.020
0.020
0.020
0.030
0.035
0.035
0.040
0.045
0.045
0.025
0.015
-0.010
-0.035
-0.045
-0.055
-0.065
-0.070
-0.080
-0.090
-0.090
-0.105
-0.110
-0.120
-0.145
-0.155
-0.170
-0.175
-0.175
-0.175
-0.180
-0.175
-0.175
-0.175
-0.175
-0.190
-0.190
-0.205
-0.205
-0.215
-0.205
-0.215
-0.200
-0.195
-0.190
-0.205
-0.205
-0.210
-0.215
-0.215
-0.215
-0.230
-0.215
-0.220
-0.220
-0.215
-0.220
-0.215
-0.220
-0.235
-0.235
-0.245
-0.255
-0.260
-0.240
-0.245
-0.235
-0.225
-0.230
-0.220
-0.240
-0.240
-0.250
-0.265
-0.270
-0.265
-0.250
-0.270
-0.250
-0.250
-0.245
-0.245
-0.255
-0.265
-0.275
-0.290
-0.285
-0.290
-0.285
-0.295
-0.275
-0.285
-0.270
-0.265
-0.265
-0.275
-0.280
-0.275
-0.260
-0.265
-0.250
-0.235
-0.220
-0.205
-0.195
-0.185
-0.195
-0.185
-0.190
-0.190
-0.185
-0.190
-0.180
-0.170
-0.175
-0.180
-0.195
-0.200
-0.225
-0.230
-0.235
-0.245
-0.245
-0.245
-0.250
-0.255
-0.255
-0.250
-0.245
-0.260
-0.245
-0.255
-0.270
-0.280
-0.300
-0.310
-0.310
-0.285
-0.280
-0.260
-0.245
-0.245
-0.235
-0.225
-0.225
-0.220
-0.225
-0.200
-0.180
-0.170
-0.145
-0.120
-0.100
-0.065
-0.060
-0.040
-0.035
-0.020
-0.005
0.005
0.020
0.035
0.080
0.100
0.155
0.235
0.300
0.390
0.505
0.615
0.735
0.850
0.905
0.900
0.800
0.620
0.430
0.225
0.055
-0.090
-0.210
-0.325
-0.425
-0.525
-0.560
-0.580
-0.560
-0.520
-0.455
-0.400
-0.335
-0.290
-0.255
-0.250
-0.250
-0.250
-0.255
-0.245
-0.240
-0.225
-0.230
-0.220
-0.225
-0.220
-0.225
-0.230
-0.230
-0.235
-0.230
-0.215
-0.200
-0.200
-0.195
-0.190
-0.200
-0.195
-0.205
-0.200
-0.215
-0.200
-0.200
-0.195
-0.180
-0.180
-0.170
-0.170
-0.175
-0.170
-0.165
-0.170
-0.170
-0.155
-0.145
-0.125
-0.110
-0.095
-0.090
-0.060
-0.055
-0.070
-0.050
-0.040
-0.040
-0.045
-0.030
-0.015
0.015
0.010
0.035
0.035
0.040
0.035
0.040
0.055
0.050
0.055
0.080
0.090
0.100
0.110
0.105
0.120
0.120
0.115
0.095
0.090
0.075
0.065
0.060
0.040
0.035
0.025
0.010
0.005
-0.020
-0.050
-0.055
-0.090
-0.095
-0.125
-0.140
-0.140
-0.145
-0.155
-0.155
-0.160
-0.170
-0.185
-0.205
-0.205
-0.225
-0.220
-0.205
-0.215
-0.215
-0.205
-0.205
-0.205
-0.200
-0.210
-0.215
-0.210
-0.220
-0.230
-0.210
-0.215
-0.210
-0.195
-0.200
-0.190
-0.210
-0.200
-0.215
-0.215
-0.230
-0.235
-0.230
-0.235
-0.225
-0.225
-0.210
-0.215
-0.230
-0.230
-0.250
-0.250
-0.270
-0.265
-0.265
-0.270
-0.255
-0.260
-0.250
-0.255
-0.265
-0.260
-0.260
-0.270
-0.275
-0.280
-0.280
-0.270
-0.280
-0.275
-0.265
-0.270
-0.270
-0.270
-0.280
-0.280
-0.290
-0.290
-0.270
-0.270
-0.255
-0.245
-0.230
-0.230
-0.225
-0.220
-0.215
-0.210
-0.200
-0.200
-0.195
-0.175
-0.170
-0.165
-0.140
-0.145
-0.130
-0.135
-0.135
-0.150
-0.165
-0.180
-0.200
-0.195
-0.195
-0.185
-0.180
-0.185
-0.210
-0.205
-0.215
-0.240
-0.250
-0.240
-0.245
-0.240
-0.250
-0.255
-0.260
-0.280
-0.275
-0.275
-0.290
-0.290
-0.295
-0.295
-0.285
-0.280
-0.255
-0.240
-0.225
-0.205
-0.205
-0.185
-0.170
-0.170
-0.155
-0.130
-0.120
-0.080
-0.060
-0.035
-0.020
0.010
0.015
0.035
0.050
0.060
0.100
0.140
0.210
0.290
0.390
0.510
0.630
0.760
0.855
0.910
0.875
0.775
0.580
0.365
0.170
0.015
-0.100
-0.195
-0.295
-0.385
-0.485
-0.550
-0.590
-0.590
-0.550
-0.470
-0.405
-0.330
-0.270
-0.235
-0.210
-0.200
-0.210
-0.205
-0.215
-0.220
-0.225
-0.220
-0.215
-0.205
-0.195
-0.200
-0.185
-0.165
-0.180
-0.180
-0.180
-0.190
-0.195
-0.195
-0.175
-0.185
-0.170
-0.155
-0.160
-0.160
-0.150
-0.145
-0.140
-0.145
-0.140
-0.145
-0.140
-0.135
-0.140
-0.110
-0.100
-0.090
-0.095
-0.085
-0.090
-0.075
-0.070
-0.075
-0.075
-0.065
-0.055
-0.025
-0.015
0.000
0.000
0.025
0.025
0.035
0.040
0.035
0.050
0.065
0.085
0.100
0.100
0.120
0.110
0.120
0.110
0.110
0.120
0.115
0.120
0.105
0.125
0.125
0.130
0.120
0.110
0.100
0.085
0.060
0.035
0.020
0.010
-0.015
-0.030
-0.045
-0.045
-0.060
-0.085
-0.095
-0.125
-0.125
-0.145
-0.160
-0.155
-0.170
-0.165
-0.150
-0.155
-0.160
-0.170
-0.170
-0.170
-0.180
-0.180
-0.195
-0.180
-0.185
-0.180
-0.170
-0.175
-0.165
-0.165
-0.170
-0.185
-0.175
-0.195
-0.205
-0.195
-0.185
-0.175
-0.185
-0.170
-0.160
-0.175
-0.175
-0.205
-0.210
-0.215
-0.215
-0.220
-0.220
-0.205
-0.205
-0.200
-0.195
-0.195
-0.210
-0.215
-0.220
-0.225
-0.230
-0.230
-0.230
-0.225
-0.215
-0.200
-0.205
-0.215
-0.210
-0.230
-0.220
-0.235
-0.235
-0.235
-0.220
-0.205
-0.215
-0.205
-0.200
-0.215
-0.210
-0.215
-0.215
-0.210
-0.205
-0.200
-0.185
-0.180
-0.150
-0.125
-0.120
-0.120
-0.115
-0.115
-0.130
-0.130
-0.120
-0.120
-0.100
-0.100
-0.095
-0.110
-0.110
-0.130
-0.155
-0.165
-0.190
-0.190
-0.200
-0.210
-0.210
-0.215
-0.225
-0.215
-0.215
-0.210
-0.230
-0.225
-0.245
-0.265
-0.280
-0.285
-0.275
-0.275
-0.280
-0.260
-0.245
-0.250
-0.245
-0.250
-0.250
-0.230
-0.220
-0.205
-0.185
-0.165
-0.135
-0.115
-0.095
-0.080
-0.055
-0.040
-0.025
0.000
0.015
0.035
0.065
0.090
0.125
0.160
0.225
0.270
0.350
0.440
0.535
0.660
0.800
0.920
0.995
0.975
0.850
0.655
0.430
0.190
0.010
-0.145
-0.255
-0.370
-0.455
-0.530
-0.565
-0.580
-0.555
-0.500
-0.430
-0.350
-0.290
-0.225
-0.220
-0.220
-0.210
-0.215
-0.225
-0.215
-0.210
-0.185
-0.185
-0.185
-0.190
-0.200
-0.210
-0.230
-0.225
-0.205
-0.220
-0.195
-0.200
-0.185
-0.175
-0.185
-0.185
-0.180
-0.185
-0.190
-0.195
-0.185
-0.185
-0.190
-0.170
-0.165
-0.165
-0.160
-0.165
-0.165
-0.175
-0.170
-0.175
-0.175
-0.160
-0.150
-0.135
-0.115
-0.100
-0.105
-0.095
-0.090
-0.090
-0.095
-0.090
-0.080
-0.070
-0.050
-0.040
-0.025
-0.010
0.000
0.000
0.015
0.010
0.015
0.020
0.035
0.035
0.045
0.050
0.065
0.065
0.070
0.080
0.055
0.050
0.040
0.045
0.040
0.035
0.035
0.025
0.005
0.000
-0.015
-0.030
-0.055
-0.085
-0.110
-0.120
-0.135
-0.145
-0.150
-0.140
-0.155
-0.155
-0.155
-0.165
-0.180
-0.190
-0.200
-0.200
-0.190
-0.200
-0.175
-0.190
-0.170
-0.175
-0.175
-0.175
-0.185
-0.190
-0.200
-0.200
-0.205
-0.195
-0.195
-0.180
-0.175
-0.180
-0.180
-0.185
-0.185
-0.195
-0.200
-0.210
-0.205
-0.210
-0.200
-0.210
-0.185
-0.185
-0.195
-0.195
-0.210
-0.215
-0.210
-0.240
-0.235
-0.240
-0.220
-0.225
-0.225
-0.225
-0.230
-0.235
-0.255
-0.250
-0.265
-0.270
-0.270
-0.275
-0.260
-0.260
-0.255
-0.260
-0.250
-0.260
-0.275
-0.275
-0.280
-0.290
-0.285
-0.275
-0.270
-0.265
-0.250
-0.235
-0.225
-0.230
-0.225
-0.215
-0.220
-0.210
-0.210
-0.200
-0.190
-0.175
-0.170
-0.160
-0.160
-0.150
-0.175
-0.200
-0.215
-0.230
-0.245
-0.245
-0.235
-0.240
-0.215
-0.220
-0.245
-0.240
-0.260
-0.280
-0.275
-0.280
-0.275
-0.285
-0.285
-0.285
-0.290
-0.295
-0.300
-0.310
-0.300
-0.305
-0.305
-0.300
-0.285
-0.280
-0.245
-0.250
-0.225
-0.205
-0.190
-0.175
-0.180
-0.160
-0.155
-0.140
-0.115
-0.090
-0.060
-0.040
-0.015
0.000
0.005
0.005
0.025
0.035
0.055
0.095
0.130
0.190
0.260
0.375
0.480
0.620
0.750
0.875
0.975
0.995
0.940
0.820
0.655
0.470
0.300
0.170
0.045
-0.070
-0.195
-0.330
-0.460
-0.550
-0.590
-0.590
-0.545
-0.490
-0.395
-0.330
-0.265
-0.225
-0.220
-0.225
-0.230
-0.250
-0.265
-0.260
-0.270
-0.265
-0.255
-0.260
-0.245
-0.245
-0.240
-0.250
-0.230
-0.240
-0.260
-0.250
-0.255
-0.240
-0.250
-0.230
-0.225
-0.220
-0.215
-0.230
-0.240
-0.240
-0.255
-0.260
-0.265
-0.250
-0.250
-0.245
-0.230
-0.235
-0.230
-0.235
-0.235
-0.255
-0.265
-0.255
-0.250
-0.240
-0.230
-0.225
-0.210
-0.190
-0.195
-0.190
-0.190
-0.200
-0.185
-0.185
-0.175
-0.160
-0.145
-0.135
-0.115
-0.110
-0.105
-0.100
-0.100
-0.100
-0.110
-0.100
-0.090
-0.075
-0.070
-0.055
-0.050
-0.030
-0.030
-0.035
-0.035
-0.040
-0.060
