 Sample Value
-0.200
-0.200
-0.200
-0.200
-0.200
-0.200
-0.200
-0.200
-0.185
-0.185
-0.190
-0.195
-0.210
-0.210
-0.195
-0.190
-0.180
-0.180
-0.175
-0.165
-0.170
-0.175
-0.185
-0.195
-0.195
-0.225
-0.225
-0.225
-0.210
-0.215
-0.195
-0.205
-0.210
-0.215
-0.225
-0.230
-0.240
-0.245
-0.260
-0.250
-0.240
-0.235
-0.245
-0.245
-0.245
-0.260
-0.255
-0.260
-0.265
-0.260
-0.275
-0.265
-0.265
-0.270
-0.275
-0.265
-0.270
-0.275
-0.275
-0.285
-0.280
-0.285
-0.275
-0.275
-0.270
-0.265
-0.265
-0.265
-0.270
-0.290
-0.275
-0.280
-0.295
-0.285
-0.295
-0.295
-0.285
-0.290
-0.280
-0.270
-0.285
-0.275
-0.280
-0.285
-0.290
-0.295
-0.295
-0.300
-0.290
-0.290
-0.290
-0.275
-0.280
-0.280
-0.285
-0.300
-0.300
-0.305
-0.295
-0.295
-0.290
-0.280
-0.285
-0.280
-0.265
-0.285
-0.285
-0.275
-0.275
-0.270
-0.260
-0.260
-0.230
-0.210
-0.205
-0.200
-0.190
-0.180
-0.185
-0.160
-0.145
-0.135
-0.105
-0.095
-0.100
-0.100
-0.110
-0.125
-0.125
-0.140
-0.155
-0.170
-0.180
-0.200
-0.205
-0.215
-0.235
-0.250
-0.255
-0.275
-0.290
-0.285
-0.300
-0.305
-0.310
-0.315
-0.315
-0.320
-0.310
-0.300
-0.300
-0.300
-0.295
-0.295
-0.295
-0.300
-0.310
-0.320
-0.315
-0.310
-0.305
-0.285
-0.290
-0.285
-0.290
-0.300
-0.315
-0.340
-0.375
-0.430
-0.500
-0.550
-0.545
-0.480
-0.285
-0.005
0.365
0.760
1.120
1.395
1.520
1.430
1.140
0.675
0.175
-0.195
-0.420
-0.500
-0.485
-0.470
-0.480
-0.565
-0.665
-0.780
-0.915
-1.010
-1.060
-1.090
-1.075
-1.035
-0.995
-0.910
-0.830
-0.750
-0.670
-0.575
-0.505
-0.440
-0.380
-0.350
-0.325
-0.325
-0.310
-0.320
-0.300
-0.305
-0.295
-0.305
-0.300
-0.290
-0.270
-0.250
-0.240
-0.245
-0.250
-0.245
-0.250
-0.245
-0.255
-0.255
-0.255
-0.225
-0.230
-0.220
-0.205
-0.210
-0.210
-0.210
-0.205
-0.215
-0.215
-0.210
-0.205
-0.200
-0.190
-0.180
-0.175
-0.170
-0.175
-0.170
-0.175
-0.175
-0.155
-0.160
-0.155
-0.145
-0.130
-0.115
-0.105
-0.095
-0.080
-0.085
-0.075
-0.075
-0.080
-0.070
-0.060
-0.045
-0.050
-0.010
-0.010
0.005
0.010
0.010
0.015
0.030
0.040
0.040
0.060
0.075
0.095
0.110
0.125
0.150
0.155
0.180
0.170
0.185
0.190
0.210
0.210
0.220
0.235
0.250
0.270
0.280
0.285
0.280
0.295
0.280
0.295
0.290
0.300
0.305
0.320
0.325
0.325
0.325
0.315
0.320
0.305
0.290
0.280
0.255
0.240
0.235
0.210
0.190
0.185
0.165
0.130
0.115
0.095
0.070
0.045
0.020
0.005
-0.020
-0.025
-0.030
-0.040
-0.055
-0.065
-0.075
-0.095
-0.125
-0.130
-0.145
-0.140
-0.150
-0.150
-0.145
-0.140
-0.145
-0.150
-0.160
-0.165
-0.180
-0.180
-0.180
-0.175
-0.165
-0.170
-0.170
-0.145
-0.155
-0.155
-0.155
-0.180
-0.165
-0.185
-0.190
-0.175
-0.175
-0.160
-0.160
-0.160
-0.160
-0.160
-0.170
-0.175
-0.185
-0.190
-0.190
-0.190
-0.175
-0.185
-0.170
-0.160
-0.160
-0.175
-0.175
-0.180
-0.195
-0.200
-0.210
-0.220
-0.215
-0.210
-0.210
-0.210
-0.215
-0.215
-0.210
-0.220
-0.225
-0.225
-0.230
-0.225
-0.230
-0.235
-0.220
-0.205
-0.220
-0.220
-0.215
-0.220
-0.230
-0.240
-0.245
-0.235
-0.225
-0.230
-0.220
-0.210
-0.210
-0.225
-0.235
-0.230
-0.225
-0.245
-0.250
-0.235
-0.230
-0.230
-0.225
-0.225
-0.220
-0.220
-0.220
-0.240
-0.230
-0.240
-0.240
-0.240
-0.235
-0.230
-0.215
-0.210
-0.205
-0.210
-0.210
-0.215
-0.215
-0.230
-0.230
-0.235
-0.230
-0.220
-0.220
-0.210
-0.205
-0.210
-0.200
-0.200
-0.190
-0.190
-0.190
-0.180
-0.180
-0.165
-0.150
-0.135
-0.140
-0.105
-0.100
-0.080
-0.070
-0.045
-0.050
-0.045
-0.055
-0.070
-0.070
-0.085
-0.095
-0.095
-0.105
-0.100
-0.100
-0.140
-0.150
-0.170
-0.190
-0.190
-0.215
-0.215
-0.220
-0.240
-0.240
-0.245
-0.255
-0.260
-0.270
-0.260
-0.265
-0.270
-0.275
-0.275
-0.270
-0.270
-0.280
-0.275
-0.280
-0.275
-0.270
-0.260
-0.255
-0.255
-0.245
-0.250
-0.245
-0.250
-0.255
-0.270
-0.305
-0.335
-0.385
-0.460
-0.500
-0.495
-0.380
-0.145
0.215
0.630
1.050
1.395
1.585
1.540
1.215
0.685
0.140
-0.295
-0.520
-0.590
-0.565
-0.530
-0.530
-0.585
-0.665
-0.795
-0.925
-1.025
-1.065
-1.060
-1.015
-0.930
-0.845
-0.760
-0.665
-0.590
-0.500
-0.435
-0.385
-0.345
-0.310
-0.285
-0.265
-0.240
-0.230
-0.235
-0.225
-0.215
-0.220
-0.225
-0.225
-0.210
-0.215
-0.190
-0.185
-0.175
-0.170
-0.175
-0.175
-0.170
-0.185
-0.185
-0.195
-0.190
-0.190
-0.170
-0.165
-0.150
-0.160
-0.150
-0.140
-0.160
-0.160
-0.155
-0.150
-0.160
-0.150
-0.125
-0.120
-0.105
-0.085
-0.085
-0.070
-0.080
-0.085
-0.085
-0.105
-0.085
-0.080
-0.060
-0.045
-0.030
-0.015
-0.020
-0.010
-0.025
-0.020
-0.025
-0.005
0.000
0.020
0.030
0.045
0.055
0.070
0.090
0.095
0.095
0.110
0.120
0.130
0.135
0.150
0.160
0.175
0.205
0.220
0.230
0.240
0.240
0.240
0.245
0.245
0.245
0.270
0.300
0.300
0.305
0.315
0.310
0.320
0.320
0.330
0.330
0.335
0.340
0.335
0.345
0.355
0.355
0.345
0.345
0.340
0.315
0.300
0.265
0.245
0.235
0.215
0.195
0.200
0.190
0.170
0.155
0.120
0.100
0.065
0.040
0.010
-0.010
-0.015
-0.020
-0.035
-0.030
-0.040
-0.080
-0.080
-0.110
-0.130
-0.145
-0.165
-0.155
-0.155
-0.145
-0.165
-0.160
-0.160
-0.155
-0.155
-0.175
-0.175
-0.175
-0.180
-0.175
-0.180
-0.185
-0.180
-0.160
-0.160
-0.160
-0.165
-0.160
-0.190
-0.185
-0.185
-0.175
-0.165
-0.160
-0.150
-0.145
-0.160
-0.160
-0.160
-0.165
-0.180
-0.170
-0.175
-0.190
-0.185
-0.195
-0.195
-0.185
-0.185
-0.165
-0.160
-0.150
-0.165
-0.180
-0.205
-0.210
-0.200
-0.200
-0.190
-0.165
-0.170
-0.170
-0.180
-0.205
-0.220
-0.225
-0.240
-0.210
-0.205
-0.195
-0.200
-0.195
-0.205
-0.210
-0.225
-0.225
-0.220
-0.230
-0.220
-0.205
-0.200
-0.190
-0.205
-0.215
-0.210
-0.215
-0.230
-0.225
-0.225
-0.220
-0.215
-0.215
-0.225
-0.220
-0.210
-0.215
-0.215
-0.210
-0.210
-0.215
-0.215
-0.210
-0.195
-0.190
-0.155
-0.130
-0.125
-0.105
-0.105
-0.120
-0.105
-0.115
-0.085
-0.055
-0.035
-0.030
-0.035
-0.025
-0.040
-0.050
-0.055
-0.075
-0.090
-0.100
-0.135
-0.130
-0.165
-0.175
-0.190
-0.210
-0.235
-0.235
-0.255
-0.245
-0.245
-0.255
-0.255
-0.270
-0.275
-0.270
-0.270
-0.250
-0.255
-0.245
-0.240
-0.240
-0.250
-0.250
-0.245
-0.245
-0.260
-0.255
-0.260
-0.260
-0.260
-0.245
-0.240
-0.245
-0.280
-0.350
-0.435
-0.470
-0.435
-0.285
0.030
0.435
0.870
1.270
1.515
1.520
1.205
0.665
0.075
-0.380
-0.625
-0.695
-0.680
-0.615
-0.610
-0.635
-0.715
-0.820
-0.900
-0.960
-0.975
-0.970
-0.945
-0.900
-0.825
-0.745
-0.660
-0.555
-0.480
-0.400
-0.340
-0.305
-0.275
-0.265
-0.270
-0.240
-0.225
-0.215
-0.200
-0.190
-0.180
-0.185
-0.165
-0.175
-0.180
-0.185
-0.180
-0.180
-0.170
-0.165
-0.160
-0.145
-0.135
-0.140
-0.140
-0.140
-0.135
-0.145
-0.150
-0.140
-0.130
-0.115
-0.110
-0.100
-0.095
-0.095
-0.100
-0.105
-0.100
-0.100
-0.105
-0.095
-0.085
-0.090
-0.080
-0.080
-0.055
-0.050
-0.040
-0.035
-0.045
-0.050
-0.050
-0.050
-0.020
-0.015
-0.005
0.000
0.015
0.000
0.005
0.010
0.035
0.035
0.025
0.035
0.040
0.065
0.060
0.075
0.085
0.085
0.100
0.105
0.105
0.105
0.125
0.115
0.120
0.150
0.160
0.175
0.180
0.200
0.200
0.195
0.200
0.200
0.205
0.210
0.230
0.240
0.255
0.260
0.265
0.275
0.280
0.285
0.295
0.295
0.290
0.285
0.285
0.280
0.280
0.280
0.275
0.255
0.245
0.225
0.195
0.175
0.155
0.145
0.120
0.110
0.090
0.080
0.055
0.020
0.030
0.005
-0.015
-0.040
-0.055
-0.075
-0.100
-0.115
-0.105
-0.115
-0.120
-0.135
-0.140
-0.145
-0.150
-0.155
-0.150
-0.155
-0.150
-0.145
-0.140
-0.125
-0.135
-0.140
-0.130
-0.140
-0.140
-0.145
-0.145
-0.145
-0.130
-0.125
-0.110
-0.110
-0.110
-0.110
-0.115
-0.125
-0.125
-0.130
-0.140
-0.130
-0.125
-0.125
-0.115
-0.105
-0.105
-0.115
-0.125
-0.120
-0.150
-0.150
-0.165
-0.160
-0.145
-0.140
-0.140
-0.135
-0.140
-0.155
-0.165
-0.170
-0.190
-0.190
-0.195
-0.190
-0.185
-0.185
-0.185
-0.185
-0.180
-0.195
-0.190
-0.200
-0.205
-0.220
-0.215
-0.215
-0.215
-0.210
-0.210
-0.215
-0.200
-0.210
-0.215
-0.215
-0.225
-0.240
-0.235
-0.235
-0.240
-0.230
-0.220
-0.215
-0.230
-0.210
-0.210
-0.220
-0.240
-0.230
-0.225
-0.220
-0.210
-0.205
-0.180
-0.170
-0.170
-0.180
-0.180
-0.165
-0.160
-0.150
-0.140
-0.125
-0.100
-0.075
-0.050
-0.025
-0.030
-0.020
-0.050
-0.065
-0.085
-0.090
-0.115
-0.130
-0.145
-0.145
-0.155
-0.165
-0.190
-0.200
-0.220
-0.245
-0.260
-0.255
-0.260
-0.255
-0.255
-0.250
-0.250
-0.245
-0.255
-0.255
-0.260
-0.265
-0.275
-0.275
-0.270
-0.275
-0.270
-0.265
-0.255
-0.250
-0.265
-0.260
-0.270
-0.270
-0.285
-0.295
-0.310
-0.330
-0.365
-0.425
-0.495
-0.520
-0.490
-0.325
-0.060
0.285
0.680
1.075
1.395
1.535
1.450
1.135
0.650
0.130
-0.240
-0.445
-0.525
-0.525
-0.530
-0.575
-0.655
-0.785
-0.890
-0.995
-1.045
-1.050
-1.040
-0.985
-0.910
-0.825
-0.735
-0.635
-0.550
-0.470
-0.410
-0.355
-0.325
-0.305
-0.300
-0.290
-0.280
-0.285
-0.285
-0.270
-0.270
-0.260
-0.260
-0.250
-0.230
-0.230
-0.220
-0.215
-0.220
-0.220
-0.220
-0.235
-0.235
-0.235
-0.220
-0.200
-0.195
-0.190
-0.185
-0.185
-0.180
-0.180
-0.200
-0.190
-0.190
-0.190
-0.165
-0.155
-0.150
-0.135
-0.145
-0.140
-0.140
-0.130
-0.125
-0.125
-0.115
-0.105
-0.105
-0.095
-0.070
-0.070
-0.060
-0.055
-0.045
-0.045
-0.040
-0.040
-0.030
-0.015
-0.005
0.010
0.015
0.035
0.035
0.045
0.065
0.055
0.070
0.075
0.095
0.115
0.125
0.150
0.160
0.180
0.190
0.195
0.215
0.200
0.215
0.225
0.240
0.245
0.260
0.260
0.285
0.290
0.300
0.310
0.315
0.315
0.310
0.325
0.315
0.310
0.330
0.335
0.350
0.355
0.355
0.350
0.340
0.330
0.310
0.295
0.280
0.275
0.255
0.245
0.245
0.230
0.210
0.185
0.160
0.130
0.110
0.085
0.060
0.045
0.040
0.025
0.010
0.005
-0.015
-0.030
-0.045
-0.070
-0.090
-0.105
-0.115
-0.130
-0.130
-0.140
-0.150
-0.150
-0.140
-0.135
-0.145
-0.155
-0.155
-0.170
-0.185
-0.175
-0.180
-0.185
-0.160
-0.150
-0.160
-0.155
-0.150
-0.165
-0.165
-0.165
-0.175
-0.175
-0.165
-0.170
-0.165
-0.155
-0.140
-0.140
-0.140
-0.155
-0.140
-0.150
-0.160
-0.165
-0.150
-0.150
-0.140
-0.140
-0.145
-0.160
-0.165
-0.165
-0.160
-0.170
-0.160
-0.170
-0.165
-0.175
-0.160
-0.160
-0.175
-0.165
-0.165
-0.170
-0.185
-0.195
-0.200
-0.195
-0.195
-0.195
-0.185
-0.185
-0.180
-0.180
-0.185
-0.195
-0.205
-0.205
-0.215
-0.215
-0.215
-0.220
-0.200
-0.195
-0.195
-0.195
-0.195
-0.205
-0.210
-0.220
-0.220
-0.225
-0.225
-0.230
-0.215
-0.210
-0.205
-0.215
-0.210
-0.215
-0.225
-0.235
-0.230
-0.230
-0.220
-0.220
-0.210
-0.200
-0.205
-0.190
-0.220
-0.210
-0.215
-0.215
-0.220
-0.220
-0.215
-0.200
-0.190
-0.180
-0.175
-0.175
-0.170
-0.160
-0.160
-0.160
-0.155
-0.150
-0.140
-0.125
-0.115
-0.095
-0.075
-0.055
-0.045
-0.030
-0.030
-0.035
-0.050
-0.050
-0.060
-0.065
-0.060
-0.070
-0.085
-0.085
-0.105
-0.120
-0.150
-0.175
-0.180
-0.210
-0.225
-0.230
-0.245
-0.225
-0.230
-0.230
-0.235
-0.240
-0.245
-0.250
-0.250
-0.250
-0.245
-0.255
-0.240
-0.235
-0.235
-0.230
-0.245
-0.250
-0.245
-0.255
-0.255
-0.260
-0.245
-0.240
-0.235
-0.235
-0.235
-0.235
-0.250
-0.280
-0.325
-0.375
-0.430
-0.495
-0.525
-0.490
-0.360
-0.135
0.160
0.515
0.890
1.220
1.465
1.545
1.430
1.090
0.620
0.160
-0.195
-0.380
-0.450
-0.445
-0.425
-0.440
-0.520
-0.630
-0.765
-0.885
-0.995
-1.035
-1.055
-1.035
-1.005
-0.940
-0.870
-0.790
-0.700
-0.620
-0.535
-0.455
-0.395
-0.340
-0.305
-0.270
-0.270
-0.255
-0.250
-0.240
-0.245
-0.245
-0.250
-0.240
-0.235
-0.225
-0.215
-0.205
-0.205
-0.185
-0.205
-0.205
-0.205
-0.215
-0.220
-0.210
-0.190
-0.170
-0.155
-0.135
-0.150
-0.145
-0.140
-0.135
-0.145
-0.145
-0.145
-0.135
-0.145
-0.135
-0.125
-0.120
-0.120
-0.115
-0.105
-0.100
-0.100
-0.090
-0.075
-0.070
-0.075
-0.065
-0.045
-0.040
-0.040
-0.035
-0.035
-0.030
-0.025
-0.015
-0.005
0.005
0.005
0.030
0.060
0.070
0.075
0.095
0.095
0.100
0.120
0.110
0.125
0.140
0.165
0.175
0.195
0.210
0.220
0.230
0.210
0.225
0.250
0.260
0.260
0.275
0.285
0.300
0.310
0.320
0.325
0.330
0.345
0.355
0.365
0.365
0.370
0.390
0.410
0.405
0.405
0.425
0.400
0.395
0.375
0.355
0.320
0.285
0.270
0.255
0.255
0.240
0.240
0.230
0.210
0.170
0.140
0.110
0.075
0.045
0.025
0.005
0.010
-0.005
0.000
0.005
-0.015
-0.040
-0.065
-0.080
-0.095
-0.095
-0.095
-0.095
-0.100
-0.100
-0.105
-0.110
-0.130
-0.150
-0.160
-0.155
-0.165
-0.180
-0.170
-0.170
-0.150
-0.155
-0.125
-0.115
-0.120
-0.110
-0.125
-0.130
-0.160
-0.155
-0.170
-0.155
-0.155
-0.145
-0.130
-0.125
-0.130
-0.120
-0.145
-0.160
-0.155
-0.160
-0.160
-0.160
-0.150
-0.145
-0.150
-0.150
-0.150
-0.150
-0.155
-0.165
-0.170
-0.175
-0.180
-0.185
-0.195
-0.185
-0.180
-0.180
-0.180
-0.175
-0.175
-0.180
-0.185
-0.195
-0.185
-0.185
-0.195
-0.175
-0.180
-0.170
-0.190
-0.190
-0.180
-0.195
-0.220
-0.220
-0.230
-0.235
-0.225
-0.220
-0.215
-0.215
-0.210
-0.200
-0.205
-0.195
-0.195
-0.185
-0.185
-0.200
-0.195
-0.205
-0.200
-0.190
-0.195
-0.200
-0.195
-0.185
-0.180
-0.160
-0.135
-0.135
-0.120
-0.115
-0.120
-0.115
-0.110
-0.110
-0.090
-0.075
-0.055
-0.055
-0.040
-0.040
-0.030
-0.020
-0.020
-0.035
-0.060
-0.075
-0.085
-0.105
-0.120
-0.150
-0.175
-0.185
-0.205
-0.225
-0.230
-0.230
-0.215
-0.215
-0.205
-0.210
-0.225
-0.240
-0.265
-0.265
-0.265
-0.260
-0.245
-0.220
-0.225
-0.225
-0.235
-0.255
-0.265
-0.270
-0.270
-0.255
-0.245
-0.235
-0.220
-0.215
-0.230
-0.220
-0.250
-0.290
-0.355
-0.435
-0.480
-0.470
-0.325
-0.080
0.285
0.700
1.095
1.415
1.570
1.480
1.125
0.560
0.010
-0.415
-0.625
-0.660
-0.615
-0.565
-0.575
-0.605
-0.700
-0.820
-0.910
-0.970
-0.995
-0.995
-0.955
-0.880
-0.785
-0.685
-0.585
-0.500
-0.430
-0.375
-0.320
-0.295
-0.265
-0.245
-0.230
-0.210
-0.205
-0.190
-0.180
-0.185
-0.190
-0.195
-0.200
-0.195
-0.180
-0.165
-0.150
-0.120
-0.125
-0.110
-0.120
-0.135
-0.145
-0.155
-0.170
-0.165
-0.145
-0.120
-0.095
-0.080
-0.075
-0.065
-0.080
-0.090
-0.110
-0.115
-0.120
-0.120
-0.100
-0.085
-0.075
-0.050
-0.025
-0.010
-0.010
-0.015
-0.025
-0.020
-0.030
-0.025
-0.010
-0.005
-0.005
0.005
0.020
0.050
0.065
0.090
0.095
0.085
0.075
0.065
0.070
0.075
0.080
0.100
0.110
0.140
0.150
0.165
0.175
0.185
0.190
0.195
0.200
0.205
0.215
0.230
0.245
0.265
0.280
0.285
0.285
0.285
0.295
0.305
0.305
0.330
0.335
0.360
0.355
0.375
0.380
0.380
0.370
0.355
0.340
0.320
0.320
0.290
0.300
0.290
0.275
0.265
0.250
0.235
0.200
0.175
0.165
0.135
0.115
0.095
0.065
0.050
0.030
0.030
0.010
-0.005
-0.005
-0.025
-0.050
-0.060
-0.065
-0.080
-0.085
-0.090
-0.090
-0.100
-0.095
-0.100
-0.105
-0.115
-0.115
-0.125
-0.125
-0.115
-0.130
-0.125
-0.110
-0.110
-0.105
-0.100
-0.105
-0.100
-0.100
-0.110
-0.105
-0.105
-0.095
-0.105
-0.100
-0.095
-0.090
-0.090
-0.075
-0.080
-0.080
-0.095
-0.100
-0.100
-0.105
-0.105
-0.095
-0.095
-0.095
-0.110
-0.110
-0.130
-0.140
-0.150
-0.150
-0.140
-0.145
-0.135
-0.140
-0.135
-0.135
-0.150
-0.155
-0.165
-0.155
-0.170
-0.170
-0.180
-0.175
-0.195
-0.175
-0.160
-0.155
-0.150
-0.155
-0.160
-0.170
-0.180
-0.175
-0.180
-0.180
-0.180
-0.175
-0.170
-0.170
-0.170
-0.170
-0.175
-0.180
-0.175
-0.185
-0.175
-0.160
-0.155
-0.135
-0.125
-0.120
-0.115
-0.115
-0.115
-0.115
-0.095
-0.080
-0.060
-0.045
-0.020
-0.010
0.000
-0.015
-0.020
-0.035
-0.055
-0.075
-0.090
-0.100
-0.105
-0.115
-0.120
-0.135
-0.145
-0.170
-0.185
-0.210
-0.225
-0.235
-0.240
-0.245
-0.240
-0.235
-0.240
-0.240
-0.235
-0.240
-0.250
-0.260
-0.260
-0.265
-0.270
-0.265
-0.270
-0.260
-0.265
-0.250
-0.240
-0.250
-0.250
-0.250
-0.260
-0.265
-0.270
-0.270
-0.275
-0.265
-0.255
-0.250
-0.250
-0.265
-0.245
-0.245
-0.250
-0.275
-0.265
-0.275
-0.270
-0.260
-0.255
-0.250
-0.260
-0.250
-0.250
-0.255
-0.260
-0.265
-0.265
-0.275
-0.275
-0.275
-0.270
-0.260
-0.255
-0.250
-0.250
-0.265
-0.260
-0.275
-0.270
-0.260
-0.270
-0.255
-0.260
-0.255
-0.240
-0.245
-0.240
-0.245
-0.250
-0.255
-0.255
-0.250
-0.260
-0.260
-0.260
-0.255
-0.245
-0.250
-0.245
-0.245
-0.245
-0.250
-0.255
-0.255
-0.260
-0.265
-0.260
-0.250
-0.230
-0.230
-0.225
-0.245
-0.240
-0.245
-0.240
-0.245
-0.240
-0.240
-0.230
-0.225
-0.225
-0.220
-0.215
-0.220
-0.210
-0.220
-0.225
-0.225
-0.210
-0.210
-0.215
-0.200
-0.195
-0.190
-0.190
-0.190
-0.195
-0.215
-0.205
-0.205
-0.205
-0.195
-0.200
-0.185
-0.190
-0.195
-0.180
-0.180
-0.175
-0.180
-0.200
-0.190
-0.195
-0.190
-0.175
-0.165
-0.165
-0.165
-0.170
-0.170
-0.175
-0.180
-0.180
-0.180
-0.190
-0.170
-0.185
-0.180
-0.180
-0.185
-0.180
-0.165
-0.180
-0.180
-0.175
-0.180
-0.185
-0.185
-0.170
-0.165
-0.160
-0.165
-0.150
-0.170
-0.185
-0.185
-0.180
-0.175
-0.175
-0.165
-0.165
-0.155
-0.140
-0.155
-0.155
-0.150
-0.155
-0.155
-0.160
-0.170
-0.170
-0.165
-0.160
-0.160
-0.145
-0.145
-0.145
-0.155
-0.155
-0.155
-0.170
-0.160
-0.170
-0.170
-0.150
-0.160
-0.155
-0.150
-0.140
-0.145
-0.140
-0.140
-0.155
-0.160
-0.155
-0.155
-0.150
-0.140
-0.135
-0.120
-0.130
-0.140
-0.135
-0.155
-0.150
-0.150
-0.140
-0.150
-0.135
-0.135
-0.115
-0.115
-0.120
-0.115
-0.115
-0.130
-0.125
-0.125
-0.125
-0.125
-0.130
-0.125
-0.105
-0.105
-0.120
-0.110
-0.115
-0.125
-0.135
-0.130
-0.125
-0.130
-0.125
-0.125
-0.100
-0.110
-0.110
-0.110
-0.110
-0.115
-0.120
-0.125
-0.140
-0.115
-0.115
-0.120
-0.110
-0.110
-0.100
-0.115
-0.120
-0.125
-0.120
-0.120
-0.120
-0.110
-0.105
-0.105
-0.100
-0.095
-0.095
-0.090
-0.095
-0.095
-0.105
-0.110
-0.100
-0.110
-0.100
-0.100
-0.085
-0.085
-0.085
-0.075
-0.080
-0.080
-0.075
-0.065
-0.060
-0.040
-0.040
-0.035
-0.010
-0.005
-0.005
0.005
0.015
0.035
0.045
0.050
0.090
0.100
0.100
0.105
0.105
0.100
0.085
0.065
0.040
0.030
0.025
-0.005
-0.020
-0.025
-0.030
-0.055
-0.060
-0.085
-0.085
-0.090
-0.095
-0.115
-0.115
-0.125
-0.120
-0.115
-0.110
-0.120
-0.110
-0.125
-0.125
-0.110
-0.110
-0.125
-0.125
-0.120
-0.125
-0.125
-0.115
-0.120
-0.100
-0.105
-0.110
-0.120
-0.145
-0.190
-0.230
-0.300
-0.365
-0.380
-0.315
-0.150
0.120
0.455
0.825
1.200
1.520
1.755
1.845
1.755
1.455
1.030
0.600
0.270
0.085
0.020
0.020
0.075
0.100
0.110
0.080
0.030
-0.015
-0.070
-0.105
-0.115
-0.100
-0.110
-0.105
-0.110
-0.115
-0.130
-0.140
-0.150
-0.155
-0.160
-0.155
-0.155
-0.145
-0.145
-0.150
-0.160
-0.170
-0.165
-0.175
-0.180
-0.180
-0.180
-0.165
-0.155
-0.145
-0.145
-0.135
-0.135
-0.150
-0.155
-0.165
-0.160
-0.155
-0.150
-0.145
-0.135
-0.140
-0.135
-0.140
-0.130
-0.130
-0.135
-0.135
-0.135
-0.140
-0.145
-0.140
-0.125
-0.115
-0.110
-0.120
-0.125
-0.125
-0.130
-0.130
-0.115
-0.105
-0.100
-0.100
-0.095
-0.080
-0.070
-0.075
-0.070
-0.080
-0.070
-0.085
-0.075
-0.075
-0.075
-0.055
-0.060
-0.045
-0.035
-0.030
-0.035
-0.045
-0.040
-0.040
-0.055
-0.055
-0.055
-0.050
-0.040
-0.030
-0.010
-0.010
-0.010
-0.015
-0.010
-0.020
-0.015
-0.010
-0.005
0.015
0.035
0.045
0.065
0.070
0.085
0.090
0.110
0.115
0.105
0.120
0.130
0.140
0.165
0.185
0.200
0.210
0.220
0.230
0.255
0.255
0.275
0.285
0.295
0.300
0.325
0.330
0.345
0.340
0.335
0.330
0.310
0.295
0.285
0.280
0.280
0.285
0.290
0.290
0.270
0.255
0.240
0.220
0.195
0.180
0.145
0.145
0.130
0.140
0.145
0.125
0.125
0.115
0.120
0.110
0.085
0.080
0.055
0.045
0.045
0.040
0.050
0.055
0.040
0.035
0.035
0.020
0.010
-0.005
-0.015
-0.010
-0.005
0.005
0.010
0.035
0.035
0.015
0.000
0.010
0.000
-0.015
-0.020
-0.025
-0.020
-0.005
0.000
-0.005
-0.005
-0.010
-0.035
-0.020
-0.020
-0.025
-0.035
-0.035
-0.040
-0.030
-0.035
-0.015
-0.035
-0.040
-0.055
-0.085
-0.075
-0.065
-0.065
-0.055
-0.055
-0.065
-0.065
-0.065
-0.080
-0.100
-0.095
-0.100
-0.100
-0.090
-0.095
-0.085
-0.090
-0.100
-0.090
-0.095
-0.100
-0.085
-0.095
-0.090
-0.095
-0.095
-0.120
-0.100
-0.105
-0.105
-0.105
-0.110
-0.105
-0.120
-0.110
-0.110
-0.110
-0.105
-0.115
-0.125
-0.125
-0.100
-0.095
-0.070
-0.045
-0.030
-0.005
-0.015
-0.025
-0.030
-0.035
-0.020
0.005
0.025
0.060
0.075
0.090
0.085
0.060
0.035
0.010
-0.010
-0.025
-0.040
-0.045
-0.035
-0.045
-0.050
-0.060
-0.085
-0.100
-0.135
-0.145
-0.155
-0.170
-0.180
-0.180
-0.180
-0.170
-0.175
-0.165
-0.175
-0.165
-0.180
-0.185
-0.200
-0.205
-0.210
-0.215
-0.205
-0.185
-0.180
-0.165
-0.160
-0.160
-0.170
-0.190
-0.185
-0.205
-0.190
-0.195
-0.200
-0.220
-0.260
-0.335
-0.405
-0.450
-0.400
-0.260
-0.020
0.320
0.715
1.130
1.455
1.640
1.600
1.290
0.775
0.215
-0.235
-0.490
-0.575
-0.565
-0.525
-0.510
-0.535
-0.605
-0.685
-0.790
-0.865
-0.920
-0.935
-0.930
-0.900
-0.850
-0.770
-0.680
-0.575
-0.475
-0.400
-0.325
-0.290
-0.230
-0.205
-0.200
-0.190
-0.190
-0.200
-0.185
-0.180
-0.165
-0.145
-0.135
-0.130
-0.120
-0.130
-0.130
-0.125
-0.130
-0.125
-0.110
-0.095
-0.090
-0.090
-0.080
-0.085
-0.080
-0.080
-0.095
-0.085
-0.095
-0.085
-0.085
-0.075
-0.050
-0.040
-0.045
-0.030
-0.030
-0.035
-0.055
-0.080
-0.060
-0.045
-0.030
-0.020
-0.005
0.020
0.025
0.045
0.040
0.050
0.055
0.050
0.040
0.060
0.050
0.070
0.100
0.125
0.135
0.145
0.170
0.160
0.160
0.160
0.150
0.175
0.185
0.215
0.220
0.250
0.270
0.290
0.300
0.315
0.325
0.320
0.300
0.315
0.320
0.330
0.350
0.360
0.365
0.365
0.375
0.370
0.385
0.375
0.380
0.400
0.390
0.400
0.400
0.385
0.385
0.370
0.360
0.350
0.335
0.320
0.300
0.285
0.270
0.245
0.235
0.210
0.200
0.175
0.155
0.115
0.095
0.070
0.055
0.050
0.040
0.030
0.010
0.000
-0.020
-0.040
-0.045
-0.050
-0.060
-0.075
-0.105
-0.120
-0.125
-0.105
-0.100
-0.080
-0.065
-0.075
-0.090
-0.110
-0.120
-0.130
-0.130
-0.130
-0.120
-0.115
-0.110
-0.105
-0.085
-0.080
-0.075
-0.080
-0.090
-0.090
-0.105
-0.095
-0.100
-0.095
-0.080
-0.080
-0.080
-0.080
-0.080
-0.085
-0.085
-0.095
-0.095
-0.105
-0.105
-0.100
-0.095
-0.090
-0.080
-0.095
-0.095
-0.100
-0.110
-0.110
-0.115
-0.130
-0.130
-0.115
-0.120
-0.120
-0.105
-0.115
-0.130
-0.130
-0.140
-0.130
-0.135
-0.140
-0.145
-0.135
-0.140
-0.130
-0.130
-0.140
-0.145
-0.150
-0.150
-0.145
-0.165
-0.155
-0.145
-0.145
-0.130
-0.115
-0.105
-0.095
-0.085
-0.080
-0.080
-0.085
-0.080
-0.070
-0.055
-0.035
-0.015
0.005
0.025
0.035
0.035
0.035
0.010
-0.005
-0.020
-0.025
-0.035
-0.040
-0.050
-0.060
-0.085
-0.105
-0.120
-0.140
-0.170
-0.180
-0.195
-0.200
-0.200
-0.200
-0.205
-0.190
-0.195
-0.200
-0.210
-0.215
-0.210
-0.225
-0.230
-0.225
-0.235
-0.220
-0.225
-0.210
-0.210
-0.200
-0.210
-0.220
-0.215
-0.220
-0.225
-0.225
-0.240
-0.265
-0.295
-0.360
-0.430
-0.460
-0.410
-0.230
0.040
0.425
0.835
1.230
1.495
1.540
1.315
0.835
0.310
-0.130
-0.390
-0.500
-0.515
-0.510
-0.545
-0.610
-0.700
-0.810
-0.895
-0.945
-0.945
-0.930
-0.870
-0.825
-0.745
-0.655
-0.555
-0.465
-0.410
-0.335
-0.295
-0.260
-0.235
-0.230
-0.220
-0.225
-0.205
-0.210
-0.205
-0.190
-0.195
-0.180
-0.175
-0.165
-0.155
-0.155
-0.155
-0.165
-0.150
-0.155
-0.170
-0.160
-0.160
-0.140
-0.120
-0.125
-0.125
-0.130
-0.110
-0.115
-0.110
-0.110
-0.115
-0.130
-0.120
-0.105
-0.070
-0.065
-0.055
-0.065
-0.060
-0.050
-0.050
-0.045
-0.040
-0.045
-0.030
-0.020
-0.010
0.005
0.015
0.035
0.030
0.035
0.030
0.040
0.050
0.060
0.055
0.085
0.095
0.110
0.125
0.115
0.135
0.140
0.140
0.150
0.160
0.165
0.185
0.200
0.215
0.235
0.250
0.260
0.265
0.275
0.275
0.265
0.255
0.280
0.290
0.300
0.310
0.320
0.345
0.355
0.355
0.350
0.370
0.365
0.355
0.350
0.365
0.365
0.370
0.375
0.360
0.340
0.325
0.325
0.295
0.275
0.245
0.225
0.220
0.190
0.175
0.155
0.140
0.110
0.090
0.070
0.055
0.025
0.000
-0.020
-0.025
-0.045
-0.050
-0.060
-0.065
-0.065
-0.065
-0.080
-0.090
-0.100
-0.110
-0.115
-0.105
-0.105
-0.105
-0.095
-0.090
-0.080
-0.090
-0.095
-0.105
-0.110
-0.120
-0.115
-0.105
-0.110
-0.090
-0.090
-0.080
-0.080
-0.065
-0.085
-0.075
-0.080
-0.080
-0.090
-0.085
-0.070
-0.080
-0.060
-0.060
-0.055
-0.070
-0.070
-0.075
-0.075
-0.090
-0.090
-0.100
-0.080
-0.095
-0.075
-0.085
-0.105
-0.100
-0.085
-0.105
-0.115
-0.115
-0.120
-0.120
-0.120
-0.115
-0.110
-0.120
-0.115
-0.120
-0.125
-0.135
-0.140
-0.155
-0.160
-0.150
-0.155
-0.145
-0.150
-0.140
-0.150
-0.145
-0.145
-0.160
-0.165
-0.165
-0.155
-0.165
-0.160
-0.145
-0.150
-0.140
-0.145
-0.160
-0.165
-0.160
-0.165
-0.175
-0.170
-0.160
-0.170
-0.155
-0.155
-0.140
-0.150
-0.145
-0.145
-0.145
-0.165
-0.160
-0.165
-0.155
-0.165
-0.155
-0.145
-0.135
-0.135
-0.130
-0.115
-0.115
-0.120
-0.115
-0.105
-0.100
-0.090
-0.080
-0.065
-0.055
-0.050
-0.040
-0.025
-0.015
0.005
0.020
0.020
0.035
0.025
0.015
0.010
0.010
-0.010
-0.020
-0.030
-0.050
-0.050
-0.065
-0.095
-0.115
-0.120
-0.135
-0.150
-0.150
-0.150
-0.165
-0.180
-0.205
-0.190
-0.205
-0.210
-0.215
-0.210
-0.195
-0.200
-0.190
-0.190
-0.185
-0.210
-0.200
-0.205
-0.205
-0.210
-0.210
-0.200
-0.200
-0.195
-0.180
-0.195
-0.195
-0.215
-0.240
-0.295
-0.355
-0.430
-0.460
-0.425
-0.295
-0.045
0.290
0.680
1.070
1.390
1.590
1.605
1.380
0.960
0.450
0.010
-0.280
-0.410
-0.440
-0.430
-0.440
-0.495
-0.595
-0.730
-0.855
-0.950
-1.000
-1.000
-0.965
-0.915
-0.820
-0.735
-0.640
-0.535
-0.470
-0.390
-0.350
-0.305
-0.270
-0.245
-0.225
-0.215
-0.210
-0.210
-0.195
-0.185
-0.195
-0.185
-0.195
-0.185
-0.175
-0.170
-0.160
-0.160
-0.140
-0.145
-0.140
-0.145
-0.155
-0.145
-0.160
-0.170
-0.155
-0.140
-0.135
-0.135
-0.120
-0.110
-0.115
-0.125
-0.110
-0.120
-0.120
-0.110
-0.110
-0.100
-0.090
-0.085
-0.065
-0.070
-0.070
-0.075
-0.080
-0.075
-0.060
-0.050
-0.040
-0.035
-0.020
-0.015
0.005
0.015
0.025
0.015
0.025
0.030
0.030
0.035
0.050
0.055
0.065
0.085
0.110
0.115
0.125
0.130
0.130
0.135
0.140
0.155
0.170
0.185
0.200
0.225
0.235
0.245
0.265
0.265
0.265
0.280
0.285
0.300
0.320
0.335
0.350
0.350
0.370
0.380
0.385
0.385
0.390
0.380
0.390
0.395
0.400
0.405
0.415
0.430
0.435
0.430
0.425
0.425
0.410
0.395
0.380
0.370
0.360
0.340
0.340
0.325
0.305
0.290
0.265
0.250
0.225
0.185
0.170
0.140
0.110
0.105
0.085
0.090
0.090
0.075
0.060
0.035
0.025
0.005
-0.020
-0.025
-0.035
-0.040
-0.035
-0.030
-0.035
-0.035
-0.040
-0.055
-0.060
-0.075
-0.095
-0.095
-0.100
-0.095
-0.090
-0.070
-0.065
-0.070
-0.070
-0.075
-0.080
