 Sample Value
0.010
0.010
0.010
0.010
0.010
0.010
0.010
0.010
0.010
0.020
0.040
0.030
0.035
0.020
0.015
0.000
0.000
0.005
0.005
0.000
0.010
0.010
0.005
-0.010
-0.005
-0.025
-0.035
-0.055
-0.100
-0.150
-0.205
-0.280
-0.340
-0.390
-0.400
-0.410
-0.400
-0.400
-0.435
-0.455
-0.470
-0.460
-0.415
-0.320
-0.210
-0.045
0.120
0.300
0.455
0.595
0.715
0.805
0.870
0.915
0.955
0.995
1.025
1.035
1.005
0.955
0.850
0.680
0.460
0.225
-0.010
-0.205
-0.350
-0.425
-0.440
-0.420
-0.360
-0.310
-0.260
-0.205
-0.170
-0.130
-0.115
-0.110
-0.110
-0.130
-0.115
-0.110
-0.105
-0.105
-0.090
-0.090
-0.095
-0.095
-0.110
-0.115
-0.130
-0.135
-0.140
-0.140
-0.130
-0.110
-0.100
-0.115
-0.105
-0.110
-0.130
-0.135
-0.145
-0.155
-0.150
-0.145
-0.140
-0.130
-0.130
-0.120
-0.140
-0.150
-0.170
-0.180
-0.170
-0.175
-0.185
-0.170
-0.185
-0.180
-0.195
-0.200
-0.210
-0.220
-0.225
-0.240
-0.250
-0.265
-0.260
-0.260
-0.260
-0.270
-0.260
-0.255
-0.255
-0.245
-0.245
-0.255
-0.265
-0.265
-0.255
-0.230
-0.220
-0.195
-0.170
-0.160
-0.140
-0.120
-0.120
-0.100
-0.095
-0.080
-0.070
-0.055
-0.035
-0.015
0.005
0.020
0.030
0.015
0.020
0.010
0.005
0.010
0.020
0.020
0.035
0.035
0.045
0.025
0.025
0.035
0.030
0.035
0.025
0.020
0.025
0.030
0.030
0.025
0.030
0.050
0.040
0.035
0.020
0.025
0.025
0.010
0.020
0.020
0.025
0.040
0.050
0.055
0.045
0.045
0.035
0.020
0.005
-0.005
-0.005
0.015
0.025
0.040
0.045
0.050
0.035
0.030
0.010
0.005
0.000
-0.005
0.015
0.015
0.015
0.025
0.030
0.025
0.005
0.005
0.010
0.000
0.015
0.005
0.000
0.005
0.005
0.010
0.000
0.005
0.015
0.010
-0.005
-0.010
0.000
-0.020
-0.015
-0.010
-0.020
-0.010
0.005
0.015
0.010
0.020
0.005
-0.015
-0.015
-0.020
-0.015
-0.005
0.000
0.015
0.000
0.010
0.010
0.005
0.005
0.025
0.055
0.070
0.115
0.145
0.185
0.185
0.175
0.190
0.165
0.155
0.125
0.085
0.065
0.040
0.010
0.000
-0.015
0.005
0.000
0.010
0.010
-0.015
-0.050
-0.080
-0.110
-0.115
-0.115
-0.080
-0.045
-0.030
-0.020
-0.005
-0.020
-0.015
-0.040
-0.040
-0.050
-0.045
-0.040
-0.035
-0.040
-0.045
-0.045
-0.045
-0.055
-0.045
-0.040
-0.020
0.000
0.020
0.080
0.105
0.130
0.075
0.005
-0.125
-0.325
-0.560
-0.855
-1.215
-1.570
-1.890
-2.120
-2.220
-2.205
-2.110
-1.960
-1.765
-1.550
-1.305
-1.060
-0.855
-0.680
-0.575
-0.475
-0.410
-0.325
-0.265
-0.185
-0.120
-0.085
-0.040
-0.025
-0.005
0.005
0.000
0.005
0.030
0.040
0.055
0.060
0.085
0.070
0.085
0.075
0.090
0.085
0.095
0.100
0.095
0.110
0.115
0.140
0.165
0.175
0.190
0.175
0.175
0.175
0.165
0.170
0.190
0.215
0.230
0.245
0.275
0.260
0.240
0.250
0.255
0.250
0.270
0.265
0.295
0.325
0.325
0.330
0.345
0.340
0.345
0.345
0.350
0.360
0.360
0.375
0.390
0.405
0.405
0.410
0.415
0.420
0.420
0.420
0.420
0.425
0.415
0.415
0.405
0.405
0.400
0.405
0.400
0.385
0.365
0.345
0.320
0.290
0.255
0.235
0.230
0.225
0.210
0.205
0.195
0.155
0.150
0.120
0.090
0.070
0.060
0.050
0.060
0.065
0.070
0.065
0.055
0.045
0.035
0.030
0.020
0.025
0.020
0.025
0.035
0.040
0.035
0.035
0.035
0.035
0.040
0.025
0.035
0.030
0.035
0.035
0.035
0.040
0.040
0.035
0.045
0.055
0.050
0.055
0.045
0.050
0.050
0.035
0.035
0.045
0.055
0.070
0.080
0.085
0.100
0.125
0.145
0.175
0.195
0.235
0.275
0.305
0.320
0.355
0.370
0.375
0.380
0.335
0.280
0.220
0.155
0.105
0.065
0.025
0.000
-0.025
-0.075
-0.135
-0.220
-0.335
-0.460
-0.605
-0.730
-0.855
-0.950
-1.030
-1.105
-1.195
-1.310
-1.420
-1.565
-1.660
-1.705
-1.710
-1.650
-1.575
-1.475
-1.340
-1.235
-1.080
-0.925
-0.765
-0.595
-0.445
-0.330
-0.250
-0.175
-0.130
-0.100
-0.065
-0.040
-0.020
-0.005
0.010
0.005
0.015
0.015
0.000
0.010
0.015
0.045
0.055
0.060
0.075
0.075
0.070
0.080
0.085
0.085
0.095
0.080
0.100
0.110
0.120
0.120
0.125
0.135
0.145
0.150
0.170
0.175
0.160
0.170
0.175
0.195
0.220
0.245
0.265
0.275
0.285
0.295
0.300
0.310
0.325
0.330
0.340
0.370
0.385
0.410
0.425
0.440
0.435
0.440
0.430
0.420
0.425
0.435
0.435
0.445
0.435
0.445
0.445
0.430
0.425
0.415
0.395
0.380
0.350
0.345
0.325
0.315
0.295
0.285
0.260
0.255
0.240
0.220
0.205
0.175
0.145
0.140
0.120
0.110
0.110
0.120
0.130
0.130
0.115
0.110
0.090
0.085
0.080
0.075
0.075
0.080
0.090
0.100
0.090
0.110
0.105
0.105
0.085
0.075
0.065
0.065
0.065
0.080
0.095
0.110
0.115
0.105
0.105
0.105
0.085
0.085
0.090
0.085
0.090
0.085
0.085
0.095
0.100
0.100
0.095
0.090
0.085
0.090
0.070
0.055
0.060
0.065
0.085
0.080
0.085
0.095
0.095
0.095
0.065
0.060
0.055
0.060
0.055
0.050
0.060
0.085
0.085
0.080
0.095
0.070
0.065
0.055
0.040
0.055
0.055
0.070
0.095
0.115
0.145
0.170
0.195
0.225
0.240
0.240
0.235
0.235
0.240
0.220
0.205
0.200
0.185
0.155
0.125
0.105
0.075
0.065
0.070
0.060
0.045
0.045
0.030
0.005
-0.005
-0.015
-0.035
-0.035
-0.040
-0.015
-0.010
0.000
0.010
0.005
0.015
0.025
0.035
0.045
0.040
0.040
0.025
0.005
0.005
0.000
0.000
0.000
0.015
0.015
0.035
0.020
0.045
0.070
0.090
0.130
0.160
0.195
0.170
0.080
-0.030
-0.195
-0.395
-0.650
-0.980
-1.350
-1.715
-2.015
-2.210
-2.265
-2.220
-2.110
-1.940
-1.760
-1.530
-1.270
-1.020
-0.770
-0.615
-0.475
-0.405
-0.345
-0.275
-0.210
-0.120
-0.050
0.025
0.065
0.075
0.090
0.080
0.070
0.085
0.090
0.110
0.120
0.140
0.155
0.180
0.175
0.180
0.175
0.180
0.190
0.175
0.200
0.200
0.225
0.235
0.240
0.245
0.260
0.245
0.265
0.255
0.260
0.280
0.275
0.280
0.295
0.295
0.315
0.330
0.345
0.345
0.355
0.365
0.375
0.375
0.380
0.380
0.390
0.410
0.410
0.435
0.445
0.455
0.465
0.480
0.465
0.465
0.465
0.470
0.480
0.495
0.520
0.530
0.540
0.530
0.525
0.505
0.505
0.490
0.490
0.485
0.490
0.485
0.480
0.475
0.445
0.430
0.405
0.370
0.355
0.330
0.315
0.290
0.290
0.265
0.245
0.220
0.215
0.195
0.175
0.170
0.155
0.125
0.120
0.120
0.115
0.125
0.120
0.115
0.125
0.130
0.120
0.100
0.095
0.080
0.090
0.095
0.085
0.100
0.115
0.130
0.130
0.130
0.115
0.115
0.105
0.100
0.100
0.100
0.115
0.125
0.120
0.135
0.140
0.135
0.140
0.125
0.125
0.120
0.130
0.135
0.150
0.155
0.175
0.200
0.230
0.260
0.295
0.300
0.295
0.305
0.300
0.290
0.300
0.285
0.280
0.265
0.230
0.185
0.160
0.120
0.100
0.095
0.095
0.085
0.070
0.070
0.050
0.025
0.010
0.005
0.025
0.045
0.055
0.065
0.065
0.070
0.070
0.075
0.085
0.080
0.075
0.060
0.060
0.065
0.045
0.055
0.030
0.040
0.035
0.045
0.045
0.065
0.095
0.135
0.175
0.220
0.235
0.235
0.175
0.060
-0.090
-0.255
-0.510
-0.795
-1.150
-1.540
-1.885
-2.130
-2.280
-2.305
-2.220
-2.085
-1.910
-1.700
-1.460
-1.200
-0.935
-0.735
-0.560
-0.450
-0.365
-0.295
-0.215
-0.145
-0.065
-0.010
0.040
0.085
0.105
0.110
0.120
0.125
0.135
0.135
0.125
0.140
0.150
0.170
0.175
0.195
0.215
0.210
0.230
0.220
0.215
0.220
0.230
0.220
0.245
0.270
0.280
0.285
0.295
0.300
0.300
0.300
0.310
0.315
0.330
0.340
0.365
0.370
0.395
0.405
0.405
0.425
0.415
0.430
0.440
0.450
0.475
0.475
0.505
0.515
0.525
0.535
0.545
0.550
0.560
0.565
0.570
0.570
0.565
0.565
0.580
0.580
0.595
0.595
0.590
0.575
0.570
0.545
0.520
0.500
0.480
0.440
0.435
0.420
0.405
0.385
0.360
0.330
0.295
0.270
0.240
0.215
0.225
0.190
0.185
0.175
0.175
0.175
0.155
0.145
0.130
0.110
0.105
0.110
0.105
0.105
0.115
0.120
0.110
0.120
0.105
0.115
0.110
0.105
0.100
0.085
0.080
0.070
0.065
0.045
0.050
0.035
-0.005
-0.040
-0.110
-0.180
-0.260
-0.320
-0.345
-0.360
-0.345
-0.355
-0.355
-0.385
-0.410
-0.405
-0.355
-0.265
-0.135
0.035
0.230
0.420
0.605
0.750
0.895
0.995
1.090
1.170
1.205
1.240
1.240
1.220
1.140
0.965
0.725
0.435
0.110
-0.160
-0.355
-0.440
-0.430
-0.380
-0.300
-0.245
-0.190
-0.160
-0.135
-0.120
-0.095
-0.080
-0.070
-0.050
-0.050
-0.050
-0.055
-0.050
-0.055
-0.040
-0.035
-0.020
-0.020
-0.015
-0.015
-0.035
-0.040
-0.060
-0.060
-0.060
-0.060
-0.050
-0.050
-0.040
-0.040
-0.035
-0.055
-0.050
-0.065
-0.075
-0.070
-0.065
-0.075
-0.080
-0.085
-0.085
-0.090
-0.075
-0.085
-0.090
-0.100
-0.115
-0.125
-0.135
-0.150
-0.155
-0.160
-0.155
-0.165
-0.175
-0.180
-0.175
-0.190
-0.215
-0.220
-0.210
-0.210
-0.205
-0.185
-0.165
-0.150
-0.145
-0.135
-0.110
-0.110
-0.090
-0.075
-0.065
-0.035
-0.005
0.015
0.020
0.040
0.055
0.070
0.075
0.085
0.085
0.080
0.080
0.090
0.085
0.095
0.110
0.115
0.120
0.105
0.115
0.100
0.105
0.090
0.080
0.085
0.090
0.115
0.115
0.120
0.120
0.125
0.115
0.100
0.090
0.095
0.075
0.095
0.100
0.110
0.105
0.115
0.120
0.100
0.100
0.100
0.090
0.085
0.095
0.090
0.095
0.085
0.095
0.095
0.100
0.110
0.100
0.095
0.080
0.075
0.075
0.065
0.070
0.080
0.075
0.090
0.095
0.085
0.095
0.085
0.070
0.070
0.060
0.065
0.070
0.065
0.070
0.065
0.075
0.060
0.065
0.055
0.045
0.050
0.050
0.050
0.055
0.060
0.060
0.060
0.075
0.070
0.080
0.075
0.055
0.040
0.030
0.040
0.035
0.055
0.065
0.065
0.065
0.060
0.065
0.050
0.035
0.040
0.035
0.045
0.055
0.075
0.090
0.125
0.165
0.190
0.220
0.235
0.240
0.235
0.230
0.220
0.215
0.205
0.180
0.155
0.130
0.110
0.100
0.070
0.045
0.020
0.030
0.005
0.015
-0.005
-0.030
-0.055
-0.055
-0.070
-0.065
-0.065
-0.055
-0.030
-0.035
-0.035
-0.025
0.005
-0.005
0.015
0.025
0.010
0.000
-0.005
-0.020
-0.030
-0.040
-0.030
-0.030
-0.025
-0.015
-0.010
0.015
0.035
0.070
0.105
0.145
0.150
0.135
0.040
-0.095
-0.265
-0.475
-0.735
-1.055
-1.410
-1.770
-2.065
-2.270
-2.345
-2.305
-2.215
-2.060
-1.880
-1.655
-1.405
-1.135
-0.885
-0.705
-0.565
-0.485
-0.405
-0.345
-0.280
-0.205
-0.125
-0.060
-0.005
0.030
0.040
0.035
0.030
0.045
0.040
0.045
0.050
0.080
0.085
0.100
0.110
0.130
0.125
0.130
0.130
0.140
0.140
0.130
0.145
0.155
0.175
0.185
0.185
0.185
0.210
0.205
0.220
0.210
0.225
0.215
0.220
0.240
0.240
0.250
0.280
0.285
0.295
0.310
0.300
0.300
0.305
0.305
0.320
0.330
0.345
0.375
0.370
0.390
0.400
0.400
0.395
0.385
0.395
0.380
0.385
0.405
0.420
0.430
0.435
0.440
0.435
0.440
0.425
0.405
0.410
0.395
0.390
0.385
0.380
0.365
0.360
0.360
0.340
0.305
0.295
0.275
0.240
0.220
0.195
0.180
0.165
0.145
0.130
0.115
0.105
0.085
0.070
0.060
0.040
0.025
0.015
0.015
0.025
0.025
0.045
0.035
0.025
0.025
0.005
0.000
0.005
-0.005
0.005
0.020
0.020
0.005
0.030
0.020
0.020
0.015
0.015
0.010
0.010
0.010
0.010
0.010
0.015
0.030
0.030
0.045
0.040
0.050
0.050
0.045
0.045
0.030
0.035
0.020
0.040
0.055
0.070
0.115
0.125
0.155
0.205
0.230
0.255
0.275
0.290
0.300
0.335
0.360
0.365
0.325
0.285
0.210
0.135
0.060
0.005
-0.050
-0.080
-0.100
-0.150
-0.215
-0.315
-0.430
-0.570
-0.720
-0.855
-0.980
-1.080
-1.150
-1.230
-1.315
-1.415
-1.525
-1.660
-1.710
-1.725
-1.710
-1.660
-1.615
-1.520
-1.410
-1.295
-1.160
-1.020
-0.840
-0.675
-0.530
-0.410
-0.290
-0.225
-0.170
-0.130
-0.115
-0.090
-0.075
-0.050
-0.020
-0.010
0.005
0.010
0.005
0.005
0.015
0.000
-0.010
0.005
0.025
0.045
0.060
0.060
0.060
0.070
0.075
0.060
0.065
0.060
0.070
0.080
0.090
0.100
0.110
0.125
0.135
0.145
0.140
0.155
0.150
0.165
0.180
0.185
0.200
0.205
0.225
0.245
0.260
0.280
0.300
0.300
0.310
0.325
0.325
0.340
0.350
0.365
0.390
0.410
0.425
0.430
0.440
0.435
0.435
0.425
0.415
0.420
0.425
0.440
0.440
0.420
0.415
0.400
0.390
0.365
0.350
0.325
0.310
0.295
0.295
0.260
0.260
0.225
0.225
0.195
0.185
0.150
0.140
0.115
0.110
0.105
0.100
0.080
0.090
0.080
0.085
0.075
0.080
0.060
0.060
0.040
0.045
0.040
0.030
0.045
0.040
0.050
0.065
0.065
0.050
0.055
0.040
0.030
0.015
0.025
0.030
0.055
0.060
0.075
0.060
0.055
0.055
0.035
0.035
0.030
0.020
0.020
0.045
0.050
0.045
0.055
0.060
0.055
0.050
0.040
0.035
0.030
0.025
0.025
0.020
0.020
0.025
0.040
0.040
0.035
0.030
0.040
0.030
0.025
0.015
0.015
0.010
0.010
0.020
0.035
0.035
0.025
0.025
0.020
0.005
-0.005
-0.020
-0.015
-0.010
0.005
0.025
0.030
0.055
0.070
0.095
0.110
0.130
0.150
0.170
0.190
0.185
0.210
0.205
0.195
0.195
0.170
0.145
0.115
0.080
0.045
0.030
0.015
0.015
0.010
0.005
0.005
-0.005
-0.030
-0.050
-0.080
-0.110
-0.115
-0.120
-0.110
-0.095
-0.070
-0.045
-0.025
-0.020
-0.035
-0.020
-0.035
-0.030
-0.050
-0.045
-0.060
-0.060
-0.055
-0.055
-0.050
-0.045
-0.040
-0.035
-0.050
-0.050
-0.040
-0.005
0.050
0.110
0.140
0.130
0.055
-0.070
-0.245
-0.460
-0.735
-1.060
-1.420
-1.795
-2.115
-2.320
-2.390
-2.350
-2.240
-2.085
-1.895
-1.655
-1.400
-1.125
-0.885
-0.705
-0.575
-0.480
-0.390
-0.310
-0.220
-0.140
-0.075
-0.035
-0.010
-0.005
0.000
0.010
0.020
0.025
0.050
0.075
0.095
0.100
0.105
0.110
0.115
0.105
0.125
0.120
0.125
0.140
0.155
0.170
0.180
0.185
0.180
0.190
0.195
0.195
0.195
0.205
0.220
0.230
0.240
0.250
0.270
0.270
0.290
0.295
0.295
0.295
0.300
0.290
0.305
0.315
0.330
0.345
0.365
0.390
0.390
0.385
0.390
0.395
0.390
0.390
0.405
0.420
0.425
0.450
0.440
0.450
0.440
0.435
0.425
0.425
0.410
0.405
0.390
0.395
0.375
0.370
0.365
0.355
0.320
0.305
0.290
0.265
0.245
0.205
0.200
0.170
0.150
0.140
0.135
0.125
0.105
0.080
0.065
0.055
0.035
0.020
0.025
0.020
0.010
0.015
0.030
0.030
0.020
0.015
0.015
-0.005
-0.020
-0.025
-0.010
-0.015
0.005
0.020
0.020
0.025
0.010
0.015
-0.005
0.000
0.000
0.000
0.000
0.005
0.010
0.010
0.020
0.015
0.020
0.030
0.020
0.015
0.015
0.020
0.025
0.025
0.035
0.030
0.055
0.075
0.085
0.110
0.135
0.145
0.170
0.170
0.180
0.190
0.190
0.200
0.195
0.185
0.155
0.120
0.060
0.030
0.005
-0.025
-0.030
-0.020
-0.020
-0.020
-0.040
-0.060
-0.090
-0.100
-0.115
-0.115
-0.110
-0.085
-0.060
-0.050
-0.040
-0.040
-0.035
-0.045
-0.040
-0.035
-0.035
-0.050
-0.050
-0.055
-0.055
-0.065
-0.065
-0.065
-0.055
-0.045
-0.040
-0.035
-0.045
-0.040
-0.020
0.010
0.060
0.100
0.125
0.120
0.050
-0.085
-0.265
-0.490
-0.795
-1.155
-1.550
-1.925
-2.210
-2.370
-2.400
-2.330
-2.210
-2.020
-1.815
-1.555
-1.290
-1.050
-0.810
-0.650
-0.545
-0.465
-0.400
-0.325
-0.245
-0.180
-0.120
-0.065
-0.035
-0.020
-0.015
-0.020
-0.010
0.005
0.010
0.025
0.050
0.065
0.075
0.080
0.080
0.090
0.085
0.075
0.090
0.110
0.120
0.130
0.145
0.160
0.155
0.165
0.165
0.170
0.175
0.170
0.185
0.195
0.215
0.240
0.250
0.255
0.260
0.265
0.270
0.290
0.300
0.300
0.315
0.325
0.345
0.355
0.385
0.405
0.415
0.410
0.425
0.410
0.410
0.410
0.420
0.425
0.435
0.455
0.460
0.465
0.470
0.460
0.440
0.435
0.405
0.385
0.355
0.350
0.335
0.325
0.295
0.280
0.230
0.215
0.185
0.155
0.120
0.095
0.075
0.060
0.060
0.050
0.035
0.025
0.015
0.010
0.000
-0.010
-0.020
-0.025
-0.045
-0.030
-0.030
-0.030
-0.015
-0.010
0.000
-0.015
-0.020
-0.030
-0.050
-0.060
-0.065
-0.065
-0.055
-0.070
-0.080
-0.115
-0.160
-0.245
-0.325
-0.415
-0.485
-0.515
-0.515
-0.515
-0.520
-0.530
-0.535
-0.520
-0.455
-0.345
-0.205
-0.045
0.135
0.320
0.475
0.630
0.770
0.885
0.995
1.055
1.100
1.135
1.150
1.115
1.025
0.850
0.605
0.320
0.030
-0.230
-0.425
-0.550
-0.580
-0.550
-0.495
-0.440
-0.395
-0.345
-0.305
-0.285
-0.240
-0.220
-0.205
-0.195
-0.185
-0.180
-0.175
-0.175
-0.180
-0.175
-0.185
-0.190
-0.185
-0.185
-0.165
-0.175
-0.175
-0.175
-0.195
-0.205
-0.220
-0.215
-0.220
-0.205
-0.200
-0.200
-0.185
-0.195
-0.200
-0.195
-0.210
-0.225
-0.220
-0.225
-0.230
-0.240
-0.250
-0.245
-0.245
-0.255
-0.260
-0.260
-0.265
-0.280
-0.300
-0.305
-0.315
-0.325
-0.330
-0.330
-0.325
-0.315
-0.320
-0.335
-0.330
-0.345
-0.345
-0.335
-0.310
-0.305
-0.275
-0.260
-0.235
-0.230
-0.205
-0.195
-0.175
-0.160
-0.155
-0.130
-0.115
-0.090
-0.080
-0.065
-0.050
-0.035
-0.020
-0.030
-0.035
-0.035
-0.025
-0.010
-0.015
-0.015
-0.010
-0.015
-0.020
-0.005
-0.010
-0.005
0.000
0.000
0.000
-0.010
-0.015
-0.020
-0.020
-0.015
0.000
0.015
0.010
0.015
0.005
0.005
-0.020
-0.035
-0.035
-0.035
-0.025
0.010
0.015
0.030
0.025
-0.005
-0.005
-0.025
-0.030
-0.035
-0.020
0.005
0.010
0.035
0.045
0.035
0.015
0.010
0.000
0.005
-0.010
0.000
-0.005
0.005
0.000
0.005
-0.015
-0.015
-0.015
-0.025
-0.025
-0.020
-0.010
-0.020
-0.015
0.000
-0.015
0.015
0.000
-0.010
-0.010
-0.010
-0.005
-0.010
-0.015
-0.045
-0.080
-0.080
-0.065
-0.020
0.020
0.045
0.030
0.005
-0.020
-0.030
-0.040
-0.055
-0.050
-0.030
-0.015
0.005
0.015
0.030
0.030
0.035
0.005
0.000
0.005
0.015
0.015
0.015
0.000
0.010
0.025
0.065
0.105
0.160
0.205
0.220
0.235
0.215
0.215
0.200
0.205
0.210
0.195
0.170
0.150
0.130
0.120
0.090
0.070
0.060
0.035
0.030
0.015
0.010
0.005
-0.005
-0.015
-0.015
-0.015
0.015
0.040
0.065
0.055
0.040
0.025
0.010
0.020
0.010
0.010
0.020
0.005
0.005
0.005
0.005
0.005
0.020
0.020
0.020
0.050
0.090
0.130
0.160
0.180
0.170
0.110
0.040
-0.095
-0.280
-0.495
-0.760
-1.060
-1.385
-1.670
-1.855
-1.955
-1.960
-1.860
-1.725
-1.505
-1.280
-1.045
-0.820
-0.625
-0.485
-0.385
-0.315
-0.250
-0.190
-0.125
-0.070
-0.015
0.010
0.050
0.075
0.100
0.105
0.125
0.135
0.145
0.150
0.135
0.130
0.135
0.155
0.165
0.185
0.200
0.215
0.205
0.215
0.210
0.195
0.205
0.205
0.220
0.230
0.245
0.240
0.260
0.255
0.255
0.255
0.260
0.260
0.270
0.285
0.310
0.295
0.310
0.325
0.325
0.345
0.355
0.355
0.360
0.355
0.360
0.365
0.365
0.380
0.395
0.405
0.425
0.435
0.450
0.450
0.450
0.440
0.445
0.430
0.440
0.435
0.460
0.470
0.490
0.500
0.495
0.500
0.485
0.460
0.450
0.440
0.435
0.435
0.440
0.440
0.430
0.420
0.395
0.375
0.355
0.325
0.310
0.290
0.275
0.255
0.250
0.235
0.220
0.205
0.205
0.195
0.175
0.175
0.165
0.150
0.140
0.140
0.145
0.150
0.155
0.165
0.160
0.155
0.140
0.140
0.145
0.125
0.135
0.130
0.140
0.155
0.165
0.175
0.165
0.160
0.140
0.140
0.120
0.135
0.155
0.165
0.175
0.195
0.190
0.180
0.175
0.165
0.170
0.175
0.170
0.175
0.175
0.185
0.190
0.185
0.190
0.200
0.225
0.230
0.270
0.285
0.285
0.300
0.300
0.295
0.300
0.305
0.315
0.330
0.325
0.285
0.260
0.230
0.185
0.155
0.125
0.130
0.150
0.155
0.165
0.155
0.140
0.120
0.095
0.070
0.045
0.040
0.050
0.070
0.085
0.125
0.135
0.140
0.130
0.130
0.120
0.105
0.100
0.100
0.100
0.105
0.110
0.110
0.105
0.105
0.100
0.110
0.110
0.110
0.120
0.140
0.185
0.215
0.260
0.270
0.235
0.155
0.035
-0.155
-0.400
-0.720
-1.065
-1.440
-1.760
-1.960
-2.055
-2.025
-1.910
-1.730
-1.515
-1.270
-1.015
-0.795
-0.600
-0.470
-0.360
-0.280
-0.200
-0.120
-0.035
0.035
0.090
0.135
0.135
0.140
0.145
0.165
0.165
0.165
0.185
0.200
0.210
0.215
0.230
0.240
0.230
0.235
0.235
0.230
0.235
0.245
0.250
0.270
0.290
0.295
0.315
0.295
0.295
0.290
0.300
0.315
0.325
0.340
0.345
0.365
0.375
0.385
0.390
0.400
0.415
0.415
0.430
0.435
0.435
0.435
0.450
0.465
0.475
0.495
0.515
0.505
0.515
0.520
0.520
0.535
0.525
0.515
0.540
0.550
0.565
0.565
0.575
0.560
0.540
0.515
0.505
0.490
0.480
0.450
0.455
0.440
0.415
0.395
0.370
0.345
0.315
0.300
0.270
0.255
0.240
0.230
0.220
0.220
0.210
0.200
0.180
0.180
0.160
0.170
0.160
0.155
0.155
0.145
0.150
0.130
0.145
0.155
0.155
0.165
0.160
0.150
0.140
0.130
0.110
0.125
0.135
0.145
0.160
0.170
0.165
0.155
0.150
0.135
0.120
0.120
0.125
0.130
0.130
0.140
0.150
0.160
0.165
0.150
0.150
0.140
0.140
0.145
0.155
0.180
0.185
0.205
0.235
0.265
0.290
0.310
0.305
0.305
0.300
0.290
0.280
0.260
0.230
0.230
0.195
0.190
0.150
0.130
0.135
0.110
0.120
0.105
0.115
0.090
0.075
0.055
0.060
0.055
0.055
0.060
0.080
0.090
0.095
0.085
0.080
0.070
0.085
0.095
0.105
0.110
0.110
0.100
0.085
0.075
0.075
0.065
0.070
0.065
0.070
0.075
0.065
0.090
0.095
0.115
0.150
0.200
0.220
0.250
0.230
0.160
0.035
-0.085
-0.295
-0.545
-0.840
-1.185
-1.535
-1.820
-2.020
-2.090
-2.070
-1.975
-1.830
-1.640
-1.430
-1.190
-0.950
-0.745
-0.605
-0.475
-0.390
-0.310
-0.240
-0.175
-0.100
-0.025
0.035
0.075
0.100
0.105
0.120
0.110
0.095
0.125
0.125
0.135
0.150
0.170
0.185
0.195
0.195
0.195
0.195
0.195
0.195
0.195
0.205
0.205
0.215
0.235
0.240
0.250
0.250
0.250
0.260
0.265
0.250
0.255
0.270
0.285
0.290
0.300
0.315
0.335
0.330
0.350
0.365
0.360
0.355
0.355
0.365
0.375
0.395
0.405
0.440
0.455
0.470
0.460
0.465
0.465
0.455
0.470
0.465
0.480
0.505
0.510
0.510
0.520
0.515
0.505
0.495
0.480
0.470
0.450
0.435
0.435
0.415
0.395
0.380
0.365
0.345
0.310
0.290
0.255
0.230
0.225
0.200
0.175
0.165
0.150
0.130
0.135
0.115
0.110
0.100
0.090
0.080
0.055
0.045
0.050
0.050
0.065
0.075
0.085
0.065
0.065
0.070
0.040
0.025
0.030
0.005
0.015
0.005
0.000
0.000
0.000
-0.020
-0.070
-0.115
-0.185
-0.260
-0.310
-0.350
-0.355
-0.360
-0.330
-0.360
-0.370
-0.390
-0.395
-0.380
-0.310
-0.210
-0.075
0.090
0.230
0.385
0.520
0.635
0.745
0.835
0.890
0.960
0.990
1.010
1.025
1.015
0.940
0.800
0.590
0.325
0.055
-0.175
-0.340
-0.410
-0.435
-0.380
-0.330
-0.280
-0.215
-0.175
-0.145
-0.140
-0.125
-0.120
-0.125
-0.115
-0.105
-0.095
-0.100
-0.100
-0.100
-0.085
-0.090
-0.080
-0.090
-0.090
-0.080
-0.100
-0.110
-0.110
-0.110
-0.115
-0.120
-0.110
-0.120
-0.120
-0.110
-0.100
-0.110
-0.115
-0.120
-0.130
-0.135
-0.145
-0.155
-0.150
-0.140
-0.130
-0.135
-0.130
-0.140
-0.150
-0.175
-0.180
-0.195
-0.200
-0.195
-0.190
-0.185
-0.205
-0.195
-0.205
-0.215
-0.225
-0.245
-0.235
-0.260
-0.250
-0.260
-0.250
-0.255
-0.240
-0.225
-0.220
-0.215
-0.210
-0.200
-0.170
-0.180
-0.165
-0.155
-0.140
-0.130
-0.095
-0.075
-0.055
-0.055
-0.040
-0.030
-0.035
-0.030
-0.040
-0.035
-0.015
-0.005
0.000
0.005
-0.005
-0.005
-0.015
-0.020
-0.030
-0.030
-0.015
-0.015
-0.015
-0.020
-0.010
-0.010
-0.005
-0.015
-0.030
-0.025
-0.020
-0.035
-0.040
-0.035
-0.025
-0.035
-0.025
-0.025
-0.025
-0.020
-0.025
-0.030
-0.035
-0.050
-0.055
-0.065
-0.060
-0.040
-0.030
-0.020
-0.030
-0.020
-0.035
-0.050
-0.045
-0.060
-0.060
-0.070
-0.065
-0.065
-0.060
-0.040
-0.050
-0.045
-0.055
-0.060
-0.075
-0.085
-0.090
-0.085
-0.070
-0.065
-0.065
-0.060
-0.070
-0.070
-0.075
-0.080
-0.085
-0.080
-0.085
-0.085
-0.090
-0.080
-0.080
-0.070
-0.075
-0.090
-0.095
-0.100
-0.110
-0.105
-0.115
-0.090
-0.100
-0.100
-0.085
-0.095
-0.090
-0.090
-0.095
-0.100
-0.115
-0.125
-0.115
-0.115
-0.115
-0.110
-0.110
-0.100
-0.085
-0.090
-0.075
-0.065
-0.055
-0.040
0.000
0.030
0.045
0.045
0.070
0.060
0.060
0.030
0.010
-0.035
-0.065
-0.095
-0.105
-0.120
-0.110
-0.125
-0.115
-0.110
-0.130
-0.155
-0.190
-0.200
-0.230
-0.235
-0.225
-0.225
-0.200
-0.175
-0.165
-0.165
-0.160
-0.155
-0.165
-0.155
-0.165
-0.180
-0.190
-0.190
-0.200
-0.190
-0.195
-0.180
-0.180
-0.180
-0.175
-0.175
-0.160
-0.145
-0.095
-0.070
-0.025
-0.025
-0.070
-0.170
-0.335
-0.550
-0.820
-1.155
-1.530
-1.915
-2.215
-2.390
-2.430
-2.365
-2.225
-2.050
-1.840
-1.610
-1.350
-1.125
-0.920
-0.785
-0.690
-0.610
-0.540
-0.465
-0.385
-0.320
-0.240
-0.210
-0.165
-0.155
-0.170
-0.175
-0.170
-0.160
-0.155
-0.130
-0.110
-0.095
-0.090
-0.080
-0.080
-0.075
-0.080
-0.085
-0.090
-0.075
-0.060
-0.040
-0.030
-0.020
-0.015
-0.020
-0.025
-0.020
-0.015
0.000
0.005
0.015
0.020
0.030
0.040
0.045
0.065
0.080
0.075
0.085
0.075
0.090
0.085
0.090
0.100
0.110
0.125
0.150
0.165
0.175
0.170
0.185
0.175
0.180
0.160
0.180
0.195
0.215
0.220
0.240
0.240
0.230
0.225
0.215
0.195
0.200
0.190
0.200
0.195
0.185
0.170
0.175
0.160
0.130
0.120
0.090
0.065
0.045
0.020
-0.015
-0.025
-0.045
-0.055
-0.080
-0.095
-0.110
-0.125
-0.145
-0.155
-0.175
-0.195
-0.205
-0.205
-0.200
-0.190
-0.180
-0.190
-0.195
-0.200
-0.210
-0.215
-0.220
-0.230
-0.225
-0.215
-0.200
-0.195
-0.190
-0.190
-0.195
-0.205
-0.215
-0.215
-0.225
-0.210
-0.200
-0.205
-0.195
-0.200
-0.200
-0.190
-0.190
-0.180
-0.185
-0.185
-0.195
-0.180
-0.175
-0.165
-0.140
-0.120
-0.080
-0.060
-0.035
-0.010
-0.010
-0.015
-0.025
-0.050
-0.050
-0.060
-0.080
-0.095
-0.115
-0.150
-0.175
-0.210
-0.220
-0.235
-0.230
-0.235
-0.250
-0.250
-0.265
-0.280
-0.300
-0.310
-0.330
-0.320
-0.305
-0.300
-0.270
-0.270
-0.250
-0.260
-0.260
-0.260
-0.245
-0.250
-0.260
-0.270
-0.275
-0.270
-0.280
-0.280
-0.285
-0.285
-0.290
-0.290
-0.280
-0.280
-0.250
-0.215
-0.180
-0.140
-0.100
-0.100
-0.145
-0.245
-0.385
-0.565
-0.800
-1.115
-1.495
-1.885
-2.245
-2.495
-2.620
-2.610
-2.520
-2.375
-2.175
-1.965
-1.710
-1.445
-1.205
-0.995
-0.840
-0.725
-0.655
-0.580
-0.505
-0.445
-0.360
-0.300
-0.265
-0.250
-0.235
-0.225
-0.225
-0.225
-0.205
-0.195
-0.195
-0.190
-0.175
-0.155
-0.150
-0.140
-0.125
-0.120
-0.120
-0.125
-0.125
-0.120
-0.120
-0.105
-0.095
-0.070
-0.050
-0.045
-0.040
-0.030
-0.035
-0.035
-0.035
-0.035
-0.020
0.000
0.020
0.050
0.050
0.065
0.065
0.065
0.080
0.065
0.090
0.095
0.110
0.135
0.145
0.165
0.175
0.175
0.195
0.190
0.200
0.205
0.210
0.210
0.215
0.220
0.225
0.240
