 Sample Value
-0.32
-0.32
-0.32
-0.32
-0.32
-0.32
-0.32
-0.32
-0.025
0.265
0.58
0.925
1.31
1.67
2.01
2.24
2.315
2.185
1.77
1.13
0.49
-0.15
-0.79
-1.43
-1.64
-1.385
-1.105
-0.92
-0.855
-0.9
-0.995
-1.09
-1.17
-1.2
-1.18
-1.185
-1.155
-1.145
-1.125
-1.135
-1.155
-1.165
-1.175
-1.185
-1.185
-1.185
-1.145
-1.135
-1.12
-1.1
-1.075
-1.09
-1.1
-1.105
-1.11
-1.11
-1.115
-1.11
-1.075
-1.08
-1.05
-1.035
-1.035
-1.025
-1.02
-1.01
-1
-1
-0.98
-0.96
-0.935
-0.92
-0.895
-0.885
-0.895
-0.865
-0.84
-0.83
-0.82
-0.81
-0.775
-0.735
-0.695
-0.655
-0.61
-0.575
-0.555
-0.515
-0.515
-0.49
-0.485
-0.47
-0.47
-0.445
-0.425
-0.395
-0.355
-0.34
-0.335
-0.34
-0.35
-0.375
-0.39
-0.415
-0.44
-0.48
-0.495
-0.53
-0.565
-0.605
-0.66
-0.7
-0.74
-0.8
-0.835
-0.895
-0.945
-0.99
-1.02
-1.05
-1.06
-1.09
-1.12
-1.12
-1.145
-1.17
-1.205
-1.255
-1.26
-1.26
-1.245
-1.225
-1.215
-1.215
-1.23
-1.24
-1.245
-1.26
-1.265
-1.275
-1.27
-1.28
-1.26
-1.26
-1.235
-1.24
-1.24
-1.235
-1.245
-1.245
-1.25
-1.27
-1.265
-1.245
-1.23
-1.21
-1.205
-1.215
-1.23
-1.235
-1.25
-1.265
-1.265
-1.27
-1.27
-1.265
-1.25
-1.24
-1.225
-1.235
-1.245
-1.26
-1.28
-1.3
-1.3
-1.305
-1.305
-1.285
-1.29
-1.295
-1.295
-1.3
-1.305
-1.31
-1.325
-1.315
-1.34
-1.34
-1.345
-1.325
-1.33
-1.315
-1.305
-1.295
-1.305
-1.3
-1.305
-1.32
-1.335
-1.335
-1.36
-1.355
-1.35
-1.355
-1.34
-1.345
-1.35
-1.375
-1.385
-1.385
-1.365
-1.365
-1.37
-1.36
-1.345
-1.325
-1.305
-1.27
-1.27
-1.265
-1.275
-1.305
-1.325
-1.33
-1.325
-1.3
-1.27
-1.255
-1.24
-1.235
-1.21
-1.195
-1.195
-1.2
-1.205
-1.2
-1.2
-1.205
-1.215
-1.21
-1.215
-1.23
-1.245
-1.26
-1.28
-1.3
-1.31
-1.35
-1.375
-1.385
-1.4
-1.4
-1.4
-1.4
-1.39
-1.375
-1.385
-1.38
-1.39
-1.41
-1.425
-1.43
-1.42
-1.42
-1.4
-1.385
-1.395
-1.395
-1.395
-1.375
-1.34
-1.29
-1.205
-1.045
-0.87
-0.625
-0.38
-0.105
0.135
0.395
0.665
0.975
1.255
1.43
1.45
1.205
0.665
0.025
-0.615
-1.255
-1.895
-2.07
-1.9
-1.64
-1.39
-1.235
-1.185
-1.2
-1.24
-1.285
-1.32
-1.35
-1.36
-1.36
-1.365
-1.365
-1.365
-1.395
-1.395
-1.38
-1.38
-1.365
-1.335
-1.305
-1.29
-1.285
-1.295
-1.3
-1.29
-1.29
-1.295
-1.275
-1.26
-1.235
-1.225
-1.225
-1.215
-1.21
-1.23
-1.215
-1.195
-1.19
-1.18
-1.155
-1.135
-1.1
-1.075
-1.065
-1.045
-1.035
-1.04
-1.045
-1.025
-1.025
-1.015
-0.98
-0.945
-0.925
-0.875
-0.855
-0.83
-0.81
-0.77
-0.75
-0.73
-0.755
-0.7
-0.705
-0.685
-0.66
-0.635
-0.61
-0.6
-0.6
-0.6
-0.6
-0.605
-0.62
-0.615
-0.64
-0.64
-0.65
-0.665
-0.7
-0.75
-0.77
-0.83
-0.885
-0.925
-0.975
-0.995
-1.01
-1.055
-1.065
-1.07
-1.08
-1.115
-1.13
-1.155
-1.18
-1.21
-1.235
-1.24
-1.23
-1.225
-1.22
-1.215
-1.22
-1.21
-1.23
-1.235
-1.245
-1.25
-1.25
-1.255
-1.25
-1.24
-1.23
-1.215
-1.2
-1.205
-1.2
-1.215
-1.22
-1.19
-1.2
-1.19
-1.185
-1.165
-1.15
-1.15
-1.14
-1.145
-1.145
-1.155
-1.165
-1.155
-1.15
-1.15
-1.15
-1.16
-1.16
-1.155
-1.145
-1.14
-1.12
-1.135
-1.135
-1.135
-1.165
-1.16
-1.15
-1.145
-1.145
-1.135
-1.14
-1.175
-1.17
-1.185
-1.195
-1.19
-1.19
-1.21
-1.205
-1.18
-1.175
-1.16
-1.17
-1.175
-1.185
-1.175
-1.185
-1.195
-1.2
-1.2
-1.205
-1.21
-1.21
-1.175
-1.175
-1.165
-1.15
-1.165
-1.19
-1.205
-1.235
-1.24
-1.22
-1.205
-1.2
-1.19
-1.205
-1.195
-1.2
-1.225
-1.205
-1.215
-1.21
-1.205
-1.2
-1.16
-1.14
-1.125
-1.12
-1.115
-1.105
-1.09
-1.09
-1.105
-1.105
-1.11
-1.115
-1.095
-1.09
-1.075
-1.05
-1.05
-1.015
-0.995
-0.985
-0.97
-0.965
-0.99
-1.005
-1.015
-0.995
-0.995
-0.985
-0.99
-1.005
-1.035
-1.065
-1.075
-1.11
-1.145
-1.155
-1.185
-1.18
-1.185
-1.2
-1.21
-1.21
-1.22
-1.205
-1.21
-1.205
-1.205
-1.2
-1.2
-1.2
-1.185
-1.175
-1.175
-1.17
-1.205
-1.23
-1.215
-1.205
-1.19
-1.135
-1.02
-0.87
-0.66
-0.36
-0.02
0.35
0.74
1.13
1.52
1.875
2.135
2.315
2.375
2.32
2.07
1.565
0.925
0.285
-0.355
-0.995
-1.635
-1.67
-1.4
-1.105
-0.88
-0.8
-0.84
-0.915
-1.02
-1.105
-1.16
-1.16
-1.165
-1.145
-1.15
-1.135
-1.14
-1.145
-1.135
-1.125
-1.135
-1.12
-1.105
-1.1
-1.1
-1.12
-1.115
-1.1
-1.085
-1.065
-1.06
-1.04
-1.04
-1.04
-1.04
-1.03
-1.04
-1.04
-1.025
-1.02
-1.005
-1
-0.975
-0.95
-0.955
-0.93
-0.92
-0.915
-0.895
-0.875
-0.86
-0.855
-0.84
-0.825
-0.79
-0.77
-0.72
-0.7
-0.66
-0.66
-0.66
-0.645
-0.63
-0.605
-0.565
-0.515
-0.475
-0.415
-0.38
-0.355
-0.335
-0.33
-0.325
-0.295
-0.275
-0.25
-0.23
-0.21
-0.205
-0.19
-0.21
-0.185
-0.225
-0.225
-0.25
-0.28
-0.305
-0.35
-0.38
-0.435
-0.485
-0.535
-0.615
-0.68
-0.75
-0.815
-0.885
-0.93
-0.975
-0.99
-0.995
-1.02
-1.02
-1.02
-1.04
-1.05
-1.065
-1.09
-1.105
-1.125
-1.125
-1.14
-1.14
-1.135
-1.13
-1.11
-1.11
-1.11
-1.12
-1.145
-1.135
-1.135
-1.145
-1.13
-1.13
-1.115
-1.11
-1.1
-1.095
-1.11
-1.11
-1.11
-1.105
-1.095
-1.105
-1.11
-1.095
-1.085
-1.08
-1.065
-1.06
-1.08
-1.075
-1.09
-1.095
-1.11
-1.115
-1.105
-1.115
-1.125
-1.105
-1.095
-1.075
-1.11
-1.105
-1.115
-1.135
-1.155
-1.16
-1.155
-1.15
-1.145
-1.14
-1.12
-1.135
-1.14
-1.14
-1.16
-1.18
-1.18
-1.175
-1.185
-1.185
-1.185
-1.18
-1.175
-1.19
-1.185
-1.19
-1.185
-1.195
-1.195
-1.2
-1.195
-1.2
-1.19
-1.19
-1.19
-1.2
-1.205
-1.21
-1.21
-1.22
-1.23
-1.235
-1.225
-1.21
-1.195
-1.175
-1.135
-1.125
-1.105
-1.095
-1.115
-1.12
-1.115
-1.13
-1.11
-1.11
-1.1
-1.08
-1.065
-1.04
-1.03
-1.005
-1.01
-1
-1.015
-1.01
-1
-1.005
-1
-1.01
-1.01
-1.03
-1.07
-1.085
-1.09
-1.11
-1.105
-1.125
-1.16
-1.18
-1.195
-1.225
-1.23
-1.23
-1.25
-1.265
-1.275
-1.275
-1.27
-1.285
-1.29
-1.265
-1.265
-1.24
-1.225
-1.225
-1.21
-1.215
-1.225
-1.24
-1.23
-1.205
-1.165
-1.07
-0.925
-0.72
-0.415
-0.065
0.315
0.745
1.175
1.61
1.975
2.26
2.435
2.495
2.44
2.22
1.79
1.15
0.51
-0.13
-0.77
-1.41
-1.75
-1.505
-1.2
-0.945
-0.82
-0.82
-0.89
-1.02
-1.11
-1.165
-1.185
-1.185
-1.165
-1.15
-1.135
-1.115
-1.145
-1.15
-1.165
-1.175
-1.175
-1.17
-1.165
-1.16
-1.115
-1.1
-1.11
-1.1
-1.1
-1.09
-1.05
-1.055
-1.04
-1.055
-1.05
-1.05
-1.05
-1.05
-1.03
-1.02
-1
-0.97
-0.95
-0.93
-0.92
-0.93
-0.925
-0.93
-0.91
-0.89
-0.865
-0.84
-0.825
-0.795
-0.77
-0.745
-0.7
-0.68
-0.675
-0.675
-0.63
-0.615
-0.58
-0.54
-0.5
-0.45
-0.4
-0.365
-0.325
-0.31
-0.305
-0.28
-0.27
-0.275
-0.255
-0.25
-0.23
-0.23
-0.225
-0.24
-0.23
-0.24
-0.275
-0.31
-0.355
-0.39
-0.445
-0.485
-0.55
-0.6
-0.65
-0.715
-0.76
-0.81
-0.88
-0.935
-0.995
-1.03
-1.065
-1.055
-1.075
-1.075
-1.09
-1.085
-1.105
-1.125
-1.125
-1.15
-1.16
-1.165
-1.165
-1.175
-1.17
-1.175
-1.175
-1.135
-1.16
-1.175
-1.175
-1.175
-1.18
-1.175
-1.16
-1.135
-1.13
-1.11
-1.1
-1.12
-1.11
-1.14
-1.15
-1.145
-1.15
-1.15
-1.16
-1.145
-1.14
-1.14
-1.145
-1.14
-1.145
-1.12
-1.135
-1.15
-1.15
-1.17
-1.155
-1.16
-1.145
-1.15
-1.145
-1.15
-1.17
-1.19
-1.215
-1.225
-1.235
-1.21
-1.225
-1.22
-1.2
-1.2
-1.205
-1.195
-1.205
-1.225
-1.23
-1.235
-1.25
-1.26
-1.28
-1.255
-1.245
-1.225
-1.235
-1.245
-1.26
-1.275
-1.28
-1.305
-1.31
-1.31
-1.285
-1.285
-1.275
-1.26
-1.265
-1.26
-1.27
-1.275
-1.29
-1.3
-1.295
-1.29
-1.28
-1.255
-1.24
-1.22
-1.195
-1.185
-1.21
-1.215
-1.215
-1.225
-1.21
-1.21
-1.18
-1.16
-1.14
-1.12
-1.105
-1.095
-1.09
-1.1
-1.14
-1.145
-1.18
-1.21
-1.215
-1.215
-1.23
-1.215
-1.24
-1.26
-1.285
-1.32
-1.345
-1.35
-1.365
-1.385
-1.39
-1.405
-1.4
-1.375
-1.385
-1.365
-1.365
-1.37
-1.38
-1.39
-1.405
-1.405
-1.4
-1.39
-1.37
-1.34
-1.305
-1.22
-1.14
-1.005
-0.785
-0.475
-0.075
0.38
0.915
1.435
1.9
2.225
2.33
2.13
1.58
0.94
0.3
-0.34
-0.98
-1.62
-1.975
-1.625
-1.28
-1.05
-0.98
-1.025
-1.125
-1.25
-1.355
-1.395
-1.405
-1.38
-1.35
-1.335
-1.31
-1.31
-1.3
-1.335
-1.325
-1.35
-1.34
-1.35
-1.335
-1.34
-1.34
-1.31
-1.305
-1.255
-1.255
-1.26
-1.245
-1.245
-1.25
-1.245
-1.24
-1.23
-1.22
-1.185
-1.185
-1.15
-1.13
-1.125
-1.125
-1.105
-1.105
-1.09
-1.08
-1.065
-1.05
-1.025
-1.01
-0.975
-0.975
-0.95
-0.955
-0.9
-0.875
-0.84
-0.82
-0.81
-0.775
-0.75
-0.705
-0.655
-0.61
-0.6
-0.595
-0.595
-0.58
-0.555
-0.545
-0.54
-0.505
-0.475
-0.45
-0.43
-0.43
-0.43
-0.445
-0.47
-0.495
-0.52
-0.57
-0.61
-0.675
-0.715
-0.74
-0.785
-0.835
-0.915
-0.965
-0.995
-1.035
-1.1
-1.155
-1.195
-1.225
-1.24
-1.26
-1.275
-1.295
-1.31
-1.335
-1.35
-1.38
-1.38
-1.395
-1.4
-1.385
-1.38
-1.395
-1.365
-1.365
-1.365
-1.37
-1.395
-1.39
-1.405
-1.415
-1.415
-1.4
-1.375
-1.365
-1.35
-1.345
-1.345
-1.35
-1.345
-1.355
-1.35
-1.355
-1.365
-1.37
-1.36
-1.345
-1.34
-1.33
-1.33
-1.335
-1.345
-1.36
-1.365
-1.365
-1.375
-1.365
-1.35
-1.35
-1.35
-1.36
-1.395
-1.405
-1.42
-1.42
-1.435
-1.415
-1.43
-1.435
-1.43
-1.405
-1.385
-1.385
-1.385
-1.405
-1.41
-1.42
-1.42
-1.445
-1.445
-1.445
-1.43
-1.435
-1.42
-1.425
-1.405
-1.415
-1.425
-1.41
-1.425
-1.435
-1.44
-1.445
-1.44
-1.44
-1.435
-1.435
-1.425
-1.44
-1.43
-1.425
-1.4
-1.405
-1.39
-1.36
-1.33
-1.325
-1.305
-1.31
-1.31
-1.31
-1.33
-1.325
-1.325
-1.33
-1.325
-1.335
-1.305
-1.275
-1.245
-1.215
-1.205
-1.195
-1.21
-1.23
-1.245
-1.275
-1.3
-1.305
-1.295
-1.295
-1.28
-1.295
-1.315
-1.335
-1.37
-1.405
-1.41
-1.415
-1.435
-1.43
-1.435
-1.435
-1.42
-1.43
-1.43
-1.425
-1.42
-1.425
-1.425
-1.435
-1.425
-1.41
-1.4
-1.385
-1.365
-1.34
-1.28
-1.23
-1.125
-0.965
-0.69
-0.39
0.015
0.47
0.93
1.395
1.845
2.12
2.185
2
1.475
0.835
0.195
-0.445
-1.085
-1.725
-2.095
-1.77
-1.42
-1.16
-1.05
-1.045
-1.1
-1.195
-1.265
-1.34
-1.36
-1.37
-1.355
-1.31
-1.305
-1.295
-1.295
-1.3
-1.305
-1.3
-1.29
-1.285
-1.285
-1.275
-1.26
-1.255
-1.225
-1.215
-1.215
-1.21
-1.22
-1.225
-1.22
-1.21
-1.19
-1.18
-1.135
-1.105
-1.085
-1.055
-1.05
-1.05
-1.055
-1.065
-1.06
-1.06
-1.06
-1.045
-0.995
-0.97
-0.94
-0.915
-0.865
-0.845
-0.83
-0.81
-0.795
-0.79
-0.785
-0.735
-0.695
-0.655
-0.61
-0.58
-0.545
-0.52
-0.505
-0.495
-0.465
-0.46
-0.445
-0.415
-0.395
-0.39
-0.37
-0.38
-0.39
-0.405
-0.42
-0.44
-0.47
-0.5
-0.535
-0.56
-0.605
-0.645
-0.675
-0.71
-0.755
-0.805
-0.865
-0.925
-0.975
-1.04
-1.08
-1.125
-1.155
-1.175
-1.17
-1.195
-1.215
-1.23
-1.255
-1.27
-1.285
-1.295
-1.325
-1.315
-1.32
-1.315
-1.28
-1.285
-1.275
-1.265
-1.28
-1.29
-1.28
-1.305
-1.31
-1.295
-1.26
-1.245
-1.235
-1.225
-1.225
-1.235
-1.225
-1.23
-1.225
-1.235
-1.25
-1.25
-1.24
-1.245
-1.23
-1.225
-1.22
-1.225
-1.235
-1.24
-1.25
-1.255
-1.27
-1.26
-1.25
-1.25
-1.24
-1.265
-1.26
-1.265
-1.275
-1.29
-1.315
-1.32
-1.33
-1.32
-1.32
-1.32
-1.305
-1.29
-1.3
-1.3
-1.3
-1.31
-1.33
-1.34
-1.35
-1.36
-1.345
-1.335
-1.325
-1.32
-1.32
-1.315
-1.33
-1.34
-1.34
-1.355
-1.35
-1.34
-1.33
-1.325
-1.33
-1.325
-1.33
-1.325
-1.34
-1.34
-1.36
-1.365
-1.375
-1.37
-1.38
-1.345
-1.32
-1.31
-1.29
-1.29
-1.28
-1.265
-1.265
-1.285
-1.275
-1.285
-1.28
-1.26
-1.235
-1.23
-1.215
-1.21
-1.2
-1.205
-1.205
-1.185
-1.155
-1.125
-1.12
-1.125
-1.125
-1.155
-1.185
-1.21
-1.24
-1.26
-1.27
-1.28
-1.29
-1.31
-1.34
-1.355
-1.365
-1.38
-1.375
-1.4
-1.42
-1.4
-1.405
-1.39
-1.4
-1.4
-1.41
-1.4
-1.37
-1.38
-1.37
-1.39
-1.395
-1.38
-1.37
-1.325
-1.26
-1.14
-0.96
-0.73
-0.44
-0.085
0.3
0.71
1.17
1.625
1.99
2.24
2.31
2.15
1.67
1.03
0.39
-0.25
-0.89
-1.53
-1.875
-1.605
-1.29
-1.07
-0.99
-1
-1.09
-1.195
-1.28
-1.31
-1.34
-1.325
-1.325
-1.3
-1.31
-1.305
-1.32
-1.315
-1.3
-1.3
-1.295
-1.265
-1.265
-1.25
-1.26
-1.265
-1.27
-1.27
-1.26
-1.26
-1.24
-1.215
-1.2
-1.17
-1.165
-1.17
-1.175
-1.165
-1.175
-1.17
-1.155
-1.145
-1.125
-1.08
-1.08
-1.03
-1.03
-1.015
-1.015
-1.01
-1
-0.995
-0.975
-0.95
-0.935
-0.895
-0.855
-0.82
-0.79
-0.76
-0.735
-0.7
-0.67
-0.64
-0.625
-0.595
-0.555
-0.54
-0.51
-0.5
-0.45
-0.425
-0.425
-0.4
-0.4
-0.395
-0.38
-0.365
-0.36
-0.345
-0.335
-0.37
-0.4
-0.435
-0.485
-0.515
-0.55
-0.595
-0.65
-0.7
-0.73
-0.78
-0.8
-0.855
-0.905
-0.955
-1.035
-1.085
-1.12
-1.165
-1.195
-1.215
-1.225
-1.23
-1.23
-1.235
-1.255
-1.26
-1.26
-1.27
-1.265
-1.285
-1.285
-1.295
-1.3
-1.29
-1.29
-1.29
-1.265
-1.275
-1.275
-1.28
-1.27
-1.28
-1.27
-1.26
-1.245
-1.245
-1.225
-1.22
-1.22
-1.225
-1.235
-1.255
-1.27
-1.275
-1.28
-1.265
-1.255
-1.235
-1.225
-1.215
-1.245
-1.255
-1.26
-1.255
-1.27
-1.275
-1.28
-1.28
-1.285
-1.28
-1.27
-1.265
-1.255
-1.275
-1.285
-1.3
-1.33
-1.34
-1.35
-1.345
-1.335
-1.31
-1.315
-1.31
-1.33
-1.335
-1.34
-1.34
-1.34
-1.345
-1.375
-1.38
-1.375
-1.37
-1.38
-1.335
-1.335
-1.345
-1.345
-1.36
-1.365
-1.38
-1.38
-1.385
-1.365
-1.34
-1.335
-1.335
-1.355
-1.36
-1.35
-1.36
-1.335
-1.33
-1.325
-1.31
-1.295
-1.28
-1.265
-1.255
-1.26
-1.26
-1.27
-1.25
-1.26
-1.22
-1.22
-1.195
-1.175
-1.155
-1.135
-1.13
-1.14
-1.17
-1.21
-1.235
-1.26
-1.28
-1.275
-1.28
-1.285
-1.27
-1.285
-1.295
-1.33
-1.375
-1.41
-1.41
-1.44
-1.45
-1.44
-1.41
-1.39
-1.375
-1.355
-1.365
-1.355
-1.375
-1.39
-1.41
-1.415
-1.425
-1.415
-1.4
-1.385
-1.355
-1.32
-1.26
-1.185
-1.07
-0.935
-0.74
-0.5
-0.225
0.09
0.44
0.84
1.275
1.68
1.99
2.145
2.04
1.615
0.975
0.335
-0.305
-0.945
-1.585
-2.055
-1.815
-1.475
-1.22
-1.055
-1.02
-1.09
-1.19
-1.295
-1.35
-1.395
-1.385
-1.38
-1.34
-1.335
-1.335
-1.345
-1.36
-1.35
-1.34
-1.35
-1.34
-1.335
-1.315
-1.3
-1.285
-1.27
-1.265
-1.27
-1.275
-1.28
-1.28
-1.29
-1.28
-1.27
-1.26
-1.25
-1.215
-1.205
-1.175
-1.16
-1.155
-1.16
-1.15
-1.135
-1.145
-1.125
-1.105
-1.1
-1.065
-1.04
-1.005
-0.99
-0.97
-0.97
-0.965
-0.96
-0.955
-0.915
-0.885
-0.83
-0.795
-0.76
-0.715
-0.705
-0.685
-0.67
-0.64
-0.625
-0.595
-0.575
-0.575
-0.57
-0.545
-0.52
-0.515
-0.49
-0.49
-0.51
-0.515
-0.54
-0.545
-0.565
-0.575
-0.6
-0.625
-0.65
-0.7
-0.75
-0.8
-0.855
-0.895
-0.945
-1.01
-1.05
-1.09
-1.115
-1.16
-1.17
-1.18
-1.22
-1.24
-1.27
-1.295
-1.31
-1.32
-1.33
-1.335
-1.325
-1.335
-1.335
-1.32
-1.335
-1.335
-1.345
-1.345
-1.345
-1.355
-1.34
-1.34
-1.33
-1.32
-1.315
-1.31
-1.31
-1.315
-1.32
-1.33
-1.335
-1.35
-1.37
-1.35
-1.335
-1.305
-1.295
-1.275
-1.265
-1.275
-1.28
-1.295
-1.315
-1.31
-1.32
-1.31
-1.305
-1.295
-1.3
-1.29
-1.305
-1.305
-1.31
-1.32
-1.31
-1.315
-1.315
-1.335
-1.345
-1.365
-1.37
-1.375
-1.385
-1.38
-1.395
-1.39
-1.4
-1.4
-1.41
-1.42
-1.4
-1.405
-1.4
-1.39
-1.385
-1.4
-1.4
-1.41
-1.425
-1.415
-1.42
-1.415
-1.4
-1.405
-1.39
-1.38
-1.385
-1.385
-1.395
-1.415
-1.415
-1.41
-1.435
-1.45
-1.44
-1.435
-1.43
-1.405
-1.38
-1.375
-1.335
-1.32
-1.33
-1.33
-1.335
-1.34
-1.34
-1.345
-1.32
-1.315
-1.305
-1.31
-1.31
-1.305
-1.29
-1.25
-1.24
-1.235
-1.235
-1.22
-1.23
-1.235
-1.25
-1.26
-1.3
-1.325
-1.33
-1.315
-1.31
-1.34
-1.335
-1.355
-1.38
-1.4
-1.43
-1.455
-1.46
-1.475
-1.48
-1.48
-1.465
-1.465
-1.455
-1.445
-1.42
-1.41
-1.415
-1.425
-1.445
-1.465
-1.45
-1.415
-1.365
-1.265
-1.125
-0.935
-0.665
-0.33
0.045
0.47
0.88
1.29
1.645
1.9
2.065
2.095
1.91
1.465
0.825
0.185
-0.455
-1.095
-1.735
-1.995
-1.735
-1.45
-1.23
-1.145
-1.145
-1.22
-1.31
-1.37
-1.415
-1.425
-1.42
-1.41
-1.41
-1.405
-1.4
-1.395
-1.4
-1.385
-1.39
-1.35
-1.33
-1.325
-1.325
-1.33
-1.34
-1.325
-1.335
-1.345
-1.33
-1.32
-1.305
-1.285
-1.26
-1.265
-1.255
-1.255
-1.265
-1.24
-1.235
-1.225
-1.19
-1.165
-1.13
-1.11
-1.095
-1.09
-1.09
-1.075
-1.065
-1.04
-1.03
-1.005
-0.975
-0.955
-0.95
-0.915
-0.88
-0.845
-0.83
-0.805
-0.81
-0.765
-0.73
-0.71
-0.675
-0.645
-0.605
-0.595
-0.565
-0.565
-0.57
-0.585
-0.6
-0.605
-0.62
-0.615
-0.605
-0.595
-0.625
-0.605
-0.635
-0.675
-0.725
-0.79
-0.845
-0.905
-0.945
-0.985
-1.015
-1.06
-1.1
-1.105
-1.125
-1.16
-1.19
-1.21
-1.25
-1.255
-1.285
-1.295
-1.29
-1.295
-1.295
-1.285
-1.295
-1.305
-1.34
-1.34
-1.335
-1.34
-1.345
-1.345
-1.325
-1.31
-1.3
-1.29
-1.29
-1.295
-1.305
-1.325
-1.315
-1.315
-1.315
-1.31
-1.3
-1.275
-1.27
-1.29
-1.28
-1.28
-1.27
-1.275
-1.285
-1.3
-1.295
-1.285
-1.28
-1.28
-1.255
-1.25
-1.255
-1.255
-1.265
-1.28
-1.295
-1.29
-1.29
-1.305
-1.295
-1.305
-1.285
-1.28
-1.285
-1.28
-1.31
-1.325
-1.33
-1.335
-1.32
-1.32
-1.305
-1.3
-1.3
-1.31
-1.315
-1.335
-1.34
-1.335
-1.335
-1.345
-1.34
-1.345
-1.335
-1.315
-1.315
-1.31
-1.315
-1.295
-1.315
-1.325
-1.32
-1.335
-1.345
-1.335
-1.34
-1.325
-1.325
-1.31
-1.3
-1.3
-1.295
-1.29
-1.28
-1.28
-1.265
-1.25
-1.24
-1.235
-1.225
-1.22
-1.21
-1.21
-1.22
-1.225
-1.21
-1.215
-1.195
-1.18
-1.16
-1.125
-1.12
-1.125
-1.115
-1.145
-1.16
-1.175
-1.205
-1.215
-1.225
-1.215
-1.225
-1.21
-1.22
-1.235
-1.26
-1.28
-1.315
-1.345
-1.365
-1.385
-1.39
-1.385
-1.38
-1.37
-1.355
-1.34
-1.33
-1.33
-1.345
-1.345
-1.355
-1.335
-1.345
-1.33
-1.315
-1.29
-1.235
-1.135
-1
-0.79
-0.51
-0.15
0.24
0.685
1.15
1.63
2.02
2.285
2.39
2.275
1.905
1.29
0.65
0.01
-0.63
-1.27
-1.86
-1.78
-1.52
-1.255
-1.065
-0.985
-1
-1.085
-1.195
-1.265
-1.31
-1.31
-1.33
-1.3
-1.27
-1.25
-1.25
-1.255
-1.255
-1.265
-1.26
-1.27
-1.27
-1.26
-1.265
-1.245
-1.23
-1.215
-1.2
-1.19
-1.185
-1.185
-1.195
-1.185
-1.19
-1.19
-1.18
-1.165
-1.16
-1.135
-1.105
-1.08
-1.075
-1.07
-1.045
-1.05
-1.035
-1.04
-1.015
-1.01
-0.975
-0.955
-0.92
-0.87
-0.83
-0.815
-0.81
-0.795
-0.78
-0.735
-0.745
-0.72
-0.68
-0.645
-0.59
-0.555
-0.545
-0.525
-0.515
-0.485
-0.485
-0.47
-0.475
-0.465
-0.46
-0.465
-0.475
-0.485
-0.48
-0.505
-0.54
-0.585
-0.615
-0.655
-0.705
-0.76
-0.81
-0.855
-0.905
-0.92
-0.975
-1.015
-1.065
-1.105
-1.15
-1.185
-1.195
-1.225
-1.215
-1.22
-1.23
-1.235
-1.245
-1.265
-1.265
-1.28
-1.28
-1.295
-1.31
-1.315
-1.31
-1.29
-1.28
-1.28
-1.275
-1.265
-1.275
-1.29
-1.285
-1.29
-1.295
-1.28
-1.28
-1.265
-1.26
-1.245
-1.255
-1.25
-1.24
-1.25
-1.25
-1.25
-1.265
-1.265
-1.28
-1.265
-1.265
-1.245
-1.22
-1.22
-1.23
-1.24
-1.255
-1.27
-1.285
-1.285
-1.285
-1.265
-1.275
-1.27
-1.295
-1.3
-1.315
-1.32
-1.295
-1.29
-1.315
-1.315
-1.325
-1.305
-1.305
-1.29
-1.275
-1.27
-1.28
-1.3
-1.31
-1.32
-1.33
-1.335
-1.33
-1.32
-1.32
-1.325
-1.335
-1.325
-1.325
-1.325
-1.325
-1.32
-1.335
-1.33
-1.33
-1.32
-1.305
-1.3
-1.3
-1.315
-1.3
-1.315
-1.33
-1.345
-1.355
-1.35
-1.32
-1.275
-1.24
-1.225
-1.21
-1.21
-1.21
-1.23
-1.23
-1.24
-1.245
-1.23
-1.21
-1.19
-1.17
-1.14
-1.135
-1.14
-1.13
-1.135
-1.145
-1.165
-1.18
-1.185
-1.19
-1.19
-1.205
-1.18
-1.195
-1.205
-1.215
-1.24
-1.275
-1.3
-1.33
-1.355
-1.355
-1.365
-1.365
-1.35
-1.335
-1.34
-1.33
-1.345
-1.345
-1.36
-1.365
-1.365
-1.36
-1.335
-1.32
-1.305
-1.32
-1.32
-1.31
-1.29
-1.255
-1.175
-1.06
-0.91
-0.7
-0.445
-0.185
0.095
0.375
0.665
1
1.345
1.64
1.835
1.845
1.575
1.02
0.38
-0.26
-0.9
-1.54
-1.91
-1.775
-1.525
-1.255
-1.075
-1.02
-1.045
-1.1
-1.17
-1.225
-1.245
-1.26
-1.245
-1.25
-1.235
-1.25
-1.255
-1.265
-1.265
-1.26
-1.24
-1.235
-1.22
-1.24
-1.22
-1.22
-1.225
-1.205
-1.19
-1.195
-1.175
-1.16
-1.17
-1.13
-1.14
-1.11
-1.125
-1.12
-1.13
-1.11
-1.1
-1.085
-1.075
-1.055
-1.04
-1.015
-1
-0.985
-0.975
-0.955
-0.935
-0.92
-0.895
-0.89
-0.875
-0.855
-0.84
-0.815
-0.785
-0.75
-0.725
-0.71
-0.67
-0.65
-0.615
-0.605
-0.58
-0.55
-0.515
-0.49
-0.435
-0.41
-0.38
-0.36
-0.35
-0.345
-0.35
-0.35
-0.36
-0.35
-0.325
-0.315
-0.29
-0.295
-0.315
-0.335
-0.38
-0.445
-0.495
-0.545
-0.6
-0.63
-0.67
-0.71
-0.73
-0.765
-0.815
-0.86
-0.895
-0.93
-0.95
-0.985
-0.995
-0.99
-1.005
-1.01
-1.03
-1.045
-1.05
-1.07
-1.08
-1.075
-1.08
-1.085
-1.09
-1.09
-1.075
-1.075
-1.05
-1.04
-1.035
-1.05
-1.065
-1.07
-1.085
-1.08
-1.075
-1.06
-1.045
-1.035
-1.015
-1.01
-1
-1.005
-1.02
-1.02
-1.025
-1.025
-1.03
-1.03
-1.015
-0.985
-0.97
-0.965
-0.985
-0.995
-1.01
-1.01
-1.02
-1.035
-1.04
-1.03
-1.035
-1.04
-1.035
-1.02
-1.02
-1.03
-1.05
-1.05
-1.065
-1.06
-1.065
-1.06
-1.055
-1.04
-1.03
-1.045
-1.055
-1.07
-1.08
-1.085
-1.075
-1.09
-1.085
-1.085
-1.075
-1.07
-1.05
-1.055
-1.055
-1.06
-1.085
-1.095
-1.095
-1.09
-1.085
-1.08
-1.09
-1.075
-1.04
-1.055
-1.05
-1.07
-1.065
-1.055
-1.045
-1.025
-0.99
-0.99
-0.96
-0.96
-0.94
-0.92
-0.92
-0.935
-0.94
-0.96
-0.95
-0.94
-0.915
-0.89
-0.87
-0.87
-0.86
-0.875
-0.875
-0.875
-0.89
-0.905
-0.905
-0.945
-0.96
-0.98
-0.995
-1.02
-1.025
-1.045
-1.06
-1.06
-1.085
-1.1
-1.13
-1.145
-1.13
-1.125
-1.095
-1.09
-1.08
-1.085
-1.075
-1.095
-1.105
-1.13
-1.135
-1.135
-1.13
-1.085
-1.03
-0.945
-0.83
-0.68
-0.47
-0.21
0.12
0.485
0.89
1.33
1.735
2.1
2.345
2.435
2.315
1.9
1.26
0.62
-0.02
-0.66
-1.3
-1.675
-1.425
-1.085
-0.8
-0.66
-0.65
-0.725
-0.845
-0.96
-1.035
-1.07
-1.085
-1.08
-1.06
-1.045
-1.03
-1.025
-1.015
-1.005
-1
-0.99
-0.99
-1
-1
-0.995
-1.015
-1.02
-1.005
-1.015
-0.99
-0.985
-0.965
-0.96
-0.96
-0.96
-0.95
-0.935
-0.92
-0.91
-0.9
-0.895
-0.87
-0.87
-0.865
-0.85
-0.87
-0.865
-0.84
-0.83
-0.81
-0.8
-0.775
-0.74
-0.705
-0.68
-0.665
-0.645
-0.635
-0.615
-0.61
-0.58
-0.55
-0.515
-0.49
-0.45
-0.43
-0.375
-0.34
-0.32
-0.305
-0.29
-0.29
-0.265
-0.255
-0.245
-0.225
-0.215
-0.18
-0.165
-0.165
-0.185
-0.2
-0.235
-0.255
-0.29
-0.33
-0.39
-0.42
-0.455
-0.5
-0.54
-0.585
-0.625
-0.685
-0.74
-0.755
-0.805
-0.82
-0.84
-0.87
-0.885
-0.91
-0.925
-0.95
-0.975
-0.99
-1.025
-1.025
-1.015
-1.04
-1.035
-1.005
-0.99
-0.98
-0.98
-0.97
-0.99
-0.985
-1.005
-1.01
-1.02
-1.01
-1.025
-1.01
-1.025
-1.01
-1.01
-1.01
-1.015
-1.01
-1.005
-0.995
-1
-1
-0.975
-0.98
-0.97
-0.96
-0.97
-0.98
-0.99
-1.02
-1.015
-1.01
-1.01
-1.015
-1.025
-1.01
-1.01
-0.99
-0.97
-0.98
-0.98
-1.005
-1.015
-1.03
-1.035
-1.03
-1.015
-1.01
-1
-0.99
-1.01
-1.035
-1.06
-1.06
-1.05
-1.055
-1.05
-1.03
-1.04
-1.05
-1.035
-1.04
-1.03
-1.02
-1.025
-1.05
-1.06
-1.055
-1.06
-1.05
-1.045
-1.045
-1.05
-1.04
-1.045
-1.07
-1.07
-1.075
-1.08
-1.09
-1.085
-1.08
-1.065
-1.05
-1.025
-0.985
-0.95
-0.94
-0.925
-0.915
-0.93
-0.925
-0.93
-0.94
-0.95
-0.945
-0.935
-0.92
-0.895
-0.855
-0.85
-0.835
-0.84
-0.86
-0.875
-0.885
-0.89
-0.89
-0.91
-0.915
-0.925
-0.93
-0.94
-0.965
-0.985
-1
-1.035
-1.07
-1.085
-1.1
-1.1
-1.095
-1.11
-1.105
-1.125
-1.13
-1.12
-1.125
-1.115
-1.125
-1.105
-1.1
-1.09
-1.085
-1.07
-1.075
-1.08
-1.05
-0.995
-0.88
-0.695
-0.41
-0.04
0.435
0.955
1.49
1.965
2.31
2.475
2.4
2.015
1.375
0.735
0.095
-0.545
-1.185
-1.805
-1.53
-1.155
-0.845
-0.69
-0.685
-0.775
-0.91
-1.01
-1.085
-1.11
-1.105
-1.085
-1.065
-1.035
-1.055
-1.05
-1.055
-1.055
-1.05
-1.06
-1.045
-1.055
-1.05
-1.025
-1.01
-1.015
-1.005
-0.985
-0.98
-0.98
-0.98
-0.975
-0.965
-0.965
-0.935
-0.905
-0.895
-0.885
-0.865
-0.87
-0.85
-0.865
-0.875
-0.86
-0.855
-0.84
-0.82
-0.8
-0.775
-0.74
-0.715
-0.685
-0.675
-0.64
-0.63
-0.605
-0.575
-0.555
-0.52
-0.475
-0.455
-0.425
-0.415
-0.405
-0.39
-0.37
-0.335
-0.31
-0.3
-0.27
-0.24
-0.22
-0.2
-0.185
-0.19
-0.195
-0.195
-0.215
-0.235
-0.25
-0.285
-0.305
-0.34
-0.355
-0.385
-0.43
-0.47
-0.52
-0.57
-0.605
-0.66
-0.705
-0.745
-0.78
-0.815
-0.845
-0.86
-0.88
-0.9
-0.925
-0.945
-0.965
-0.97
-0.975
-0.995
-0.99
-0.98
-0.99
-0.985
-0.98
-0.985
-0.995
-1.025
-1.04
-1.04
-1.035
-1.035
-1.05
-1.06
-1.03
-1.01
-1.01
-1.005
-1.01
-1.01
-1.015
-1.005
-1.005
-1.005
-1.01
-0.995
-1.005
-0.995
-0.995
-1.015
-1
-1.005
-1.015
-1.025
-1.02
-1.01
-0.995
-0.995
-1
-0.99
-0.98
-0.995
-1.005
-1.02
-1.02
-1.03
-1.045
-1.045
-1.06
-1.05
-1.07
-1.06
-1.04
-1.055
-1.06
-1.055
-1.075
-1.085
-1.095
-1.105
-1.115
-1.105
-1.105
-1.1
-1.09
-1.115
-1.125
-1.13
-1.135
-1.145
-1.14
-1.12
-1.115
-1.1
-1.11
-1.125
-1.12
-1.12
-1.125
-1.125
-1.15
-1.155
-1.18
-1.18
-1.17
-1.145
-1.135
-1.125
-1.125
-1.105
-1.115
-1.11
-1.1
-1.1
-1.07
-1.06
-1.05
-1.045
-1.045
-1.035
-1.05
-1.04
-1.055
-1.04
-1.04
-1.025
-1.005
-1
-0.985
-0.965
-0.94
-0.935
-0.93
-0.955
-0.955
-0.975
-1.005
-1.015
-1.035
-1.05
-1.055
-1.045
-1.06
-1.08
-1.085
-1.125
-1.16
-1.205
-1.235
-1.255
-1.265
-1.27
-1.245
-1.22
-1.205
-1.19
-1.195
-1.185
-1.17
-1.17
-1.16
-1.18
-1.18
-1.195
-1.195
-1.22
-1.2
-1.175
-1.11
-0.975
-0.805
-0.55
-0.23
0.145
0.6
1.07
1.57
2
2.31
2.485
2.51
2.345
1.93
1.29
0.65
0.01
-0.63
-1.27
-1.73
-1.455
-1.155
-0.935
-0.855
-0.885
-0.985
-1.1
-1.185
-1.22
-1.215
-1.215
-1.18
-1.165
-1.145
-1.145
-1.145
-1.16
-1.16
-1.16
-1.17
-1.165
-1.175
-1.165
-1.16
-1.135
-1.12
-1.1
-1.085
-1.08
-1.075
-1.09
-1.085
-1.085
-1.075
-1.065
-1.085
-1.065
-1.065
-1.035
-1.01
-0.985
-0.965
-0.945
-0.93
-0.93
-0.925
-0.915
-0.91
-0.88
-0.86
-0.82
-0.795
-0.775
-0.76
-0.745
-0.73
-0.725
-0.715
-0.675
-0.635
-0.605
