 Sample Value
-0.245
-0.245
-0.245
-0.245
-0.245
-0.245
-0.245
-0.245
-0.24
-0.235
-0.195
-0.18
-0.155
-0.135
-0.125
-0.14
-0.165
-0.17
-0.185
-0.195
-0.195
-0.19
-0.17
-0.165
-0.165
-0.17
-0.165
-0.175
-0.18
-0.195
-0.195
-0.195
-0.215
-0.215
-0.2
-0.185
-0.175
-0.175
-0.175
-0.19
-0.2
-0.205
-0.2
-0.2
-0.185
-0.2
-0.2
-0.2
-0.19
-0.16
-0.145
-0.14
-0.16
-0.175
-0.205
-0.225
-0.255
-0.26
-0.23
-0.185
-0.165
-0.16
-0.17
-0.2
-0.22
-0.215
-0.215
-0.215
-0.19
-0.19
-0.19
-0.195
-0.195
-0.195
-0.19
-0.19
-0.185
-0.185
-0.18
-0.17
-0.185
-0.2
-0.215
-0.21
-0.185
-0.15
-0.145
-0.17
-0.2
-0.225
-0.24
-0.225
-0.205
-0.2
-0.195
-0.195
-0.205
-0.205
-0.205
-0.21
-0.21
-0.19
-0.175
-0.175
-0.175
-0.175
-0.18
-0.18
-0.2
-0.235
-0.25
-0.255
-0.24
-0.215
-0.185
-0.17
-0.18
-0.175
-0.185
-0.185
-0.185
-0.19
-0.22
-0.22
-0.22
-0.205
-0.185
-0.195
-0.21
-0.215
-0.215
-0.195
-0.175
-0.18
-0.21
-0.245
-0.26
-0.265
-0.26
-0.255
-0.235
-0.21
-0.2
-0.175
-0.175
-0.17
-0.195
-0.215
-0.23
-0.235
-0.23
-0.22
-0.195
-0.175
-0.155
-0.15
-0.15
-0.17
-0.18
-0.21
-0.245
-0.25
-0.27
-0.275
-0.27
-0.255
-0.235
-0.2
-0.155
-0.12
-0.115
-0.125
-0.175
-0.225
-0.265
-0.29
-0.29
-0.3
-0.27
-0.235
-0.205
-0.19
-0.185
-0.18
-0.17
-0.145
-0.145
-0.145
-0.17
-0.21
-0.25
-0.28
-0.275
-0.275
-0.245
-0.225
-0.195
-0.175
-0.19
-0.195
-0.19
-0.195
-0.22
-0.22
-0.23
-0.22
-0.22
-0.22
-0.2
-0.205
-0.21
-0.22
-0.235
-0.25
-0.265
-0.25
-0.24
-0.225
-0.2
-0.2
-0.19
-0.185
-0.195
-0.195
-0.2
-0.205
-0.22
-0.215
-0.225
-0.23
-0.23
-0.23
-0.205
-0.21
-0.215
-0.22
-0.235
-0.245
-0.235
-0.23
-0.195
-0.18
-0.17
-0.17
-0.165
-0.17
-0.18
-0.21
-0.23
-0.23
-0.235
-0.24
-0.235
-0.245
-0.245
-0.24
-0.24
-0.22
-0.21
-0.195
-0.195
-0.21
-0.215
-0.215
-0.195
-0.17
-0.14
-0.145
-0.175
-0.215
-0.25
-0.28
-0.275
-0.265
-0.235
-0.205
-0.2
-0.195
-0.2
-0.205
-0.21
-0.22
-0.235
-0.255
-0.26
-0.245
-0.225
-0.21
-0.2
-0.19
-0.185
-0.2
-0.225
-0.225
-0.23
-0.225
-0.2
-0.19
-0.175
-0.165
-0.19
-0.205
-0.215
-0.23
-0.21
-0.18
-0.17
-0.18
-0.205
-0.235
-0.255
-0.25
-0.225
-0.195
-0.175
-0.165
-0.155
-0.175
-0.2
-0.215
-0.22
-0.205
-0.2
-0.19
-0.175
-0.175
-0.185
-0.195
-0.205
-0.21
-0.215
-0.215
-0.215
-0.195
-0.19
-0.195
-0.195
-0.215
-0.2
-0.195
-0.185
-0.175
-0.185
-0.19
-0.21
-0.21
-0.235
-0.24
-0.22
-0.205
-0.18
-0.155
-0.145
-0.155
-0.19
-0.23
-0.265
-0.275
-0.24
-0.22
-0.21
-0.19
-0.18
-0.205
-0.2
-0.21
-0.185
-0.19
-0.175
-0.175
-0.195
-0.19
-0.18
-0.145
-0.125
-0.125
-0.16
-0.2
-0.25
-0.305
-0.325
-0.33
-0.265
-0.235
-0.19
-0.17
-0.16
-0.17
-0.185
-0.195
-0.2
-0.205
-0.2
-0.2
-0.18
-0.175
-0.16
-0.15
-0.16
-0.2
-0.23
-0.23
-0.195
-0.175
-0.165
-0.18
-0.205
-0.225
-0.235
-0.22
-0.195
-0.145
-0.085
-0.045
-0.04
-0.095
-0.145
-0.19
-0.205
-0.19
-0.165
-0.135
-0.1
-0.095
-0.095
-0.095
-0.125
-0.145
-0.165
-0.185
-0.19
-0.175
-0.165
-0.15
-0.15
-0.15
-0.155
-0.155
-0.15
-0.145
-0.14
-0.135
-0.145
-0.145
-0.145
-0.145
-0.145
-0.155
-0.185
-0.21
-0.245
-0.27
-0.285
-0.275
-0.265
-0.245
-0.22
-0.205
-0.195
-0.225
-0.245
-0.24
-0.24
-0.245
-0.235
-0.205
-0.185
-0.19
-0.195
-0.205
-0.215
-0.225
-0.225
-0.22
-0.21
-0.195
-0.185
-0.175
-0.175
-0.19
-0.19
-0.19
-0.16
-0.13
-0.09
-0.045
-0.02
0.01
0.05
0.115
0.21
0.295
0.34
0.31
0.19
-0.01
-0.22
-0.39
-0.48
-0.52
-0.505
-0.48
-0.44
-0.42
-0.4
-0.405
-0.425
-0.45
-0.48
-0.5
-0.5
-0.485
-0.455
-0.405
-0.35
-0.335
-0.305
-0.325
-0.355
-0.395
-0.405
-0.41
-0.4
-0.375
-0.355
-0.355
-0.32
-0.295
-0.26
-0.22
-0.18
-0.18
-0.175
-0.185
-0.195
-0.22
-0.23
-0.225
-0.22
-0.21
-0.21
-0.205
-0.195
-0.19
-0.195
-0.18
-0.195
-0.205
-0.225
-0.22
-0.195
-0.185
-0.165
-0.17
-0.16
-0.18
-0.19
-0.195
-0.18
-0.15
-0.115
-0.1
-0.11
-0.155
-0.2
-0.215
-0.205
-0.19
-0.17
-0.14
-0.125
-0.135
-0.14
-0.145
-0.145
-0.13
-0.12
-0.125
-0.125
-0.11
-0.105
-0.095
-0.095
-0.09
-0.08
-0.085
-0.08
-0.095
-0.075
-0.05
-0.03
-0.01
-0.005
0
-0.01
-0.02
-0.035
-0.03
-0.03
0.005
0.03
0.05
0.065
0.06
0.05
0.02
0.005
-0.01
-0.015
-0.02
0
0.015
0.035
0.055
0.065
0.06
0.04
0.01
-0.03
-0.04
-0.04
-0.035
-0.025
-0.02
-0.025
-0.055
-0.065
-0.095
-0.105
-0.115
-0.1
-0.105
-0.115
-0.135
-0.145
-0.16
-0.165
-0.18
-0.165
-0.15
-0.155
-0.15
-0.155
-0.175
-0.205
-0.215
-0.23
-0.225
-0.21
-0.19
-0.175
-0.17
-0.165
-0.17
-0.18
-0.18
-0.19
-0.205
-0.185
-0.17
-0.155
-0.155
-0.135
-0.135
-0.125
-0.105
-0.105
-0.11
-0.115
-0.125
-0.14
-0.145
-0.145
-0.145
-0.13
-0.12
-0.12
-0.12
-0.12
-0.13
-0.16
-0.175
-0.17
-0.155
-0.135
-0.09
-0.06
-0.06
-0.1
-0.12
-0.13
-0.15
-0.15
-0.15
-0.13
-0.125
-0.12
-0.115
-0.12
-0.13
-0.14
-0.155
-0.17
-0.155
-0.155
-0.145
-0.13
-0.125
-0.12
-0.13
-0.115
-0.11
-0.11
-0.1
-0.1
-0.11
-0.145
-0.17
-0.175
-0.165
-0.125
-0.115
-0.115
-0.135
-0.15
-0.15
-0.13
-0.115
-0.105
-0.1
-0.085
-0.075
-0.045
0.01
0.11
0.235
0.365
0.47
0.495
0.44
0.26
0.02
-0.195
-0.355
-0.435
-0.44
-0.415
-0.39
-0.34
-0.305
-0.305
-0.32
-0.355
-0.395
-0.4
-0.38
-0.35
-0.3
-0.255
-0.255
-0.28
-0.325
-0.385
-0.41
-0.415
-0.395
-0.35
-0.3
-0.285
-0.265
-0.26
-0.255
-0.24
-0.215
-0.18
-0.15
-0.15
-0.155
-0.145
-0.165
-0.15
-0.135
-0.125
-0.105
-0.095
-0.1
-0.095
-0.105
-0.125
-0.145
-0.165
-0.155
-0.155
-0.14
-0.12
-0.125
-0.11
-0.135
-0.145
-0.15
-0.14
-0.125
-0.12
-0.13
-0.135
-0.14
-0.125
-0.125
-0.1
-0.085
-0.085
-0.11
-0.105
-0.115
-0.11
-0.085
-0.055
-0.045
-0.045
-0.03
-0.02
-0.02
-0.025
-0.01
-0.01
-0.01
0.005
0.01
0.03
0.055
0.08
0.1
0.105
0.12
0.125
0.1
0.075
0.055
0.06
0.07
0.095
0.13
0.135
0.13
0.125
0.12
0.13
0.125
0.125
0.12
0.1
0.085
0.06
0.045
0.025
0.035
0.03
0.03
0.015
-0.005
-0.025
-0.03
-0.03
-0.06
-0.1
-0.125
-0.12
-0.105
-0.09
-0.09
-0.1
-0.13
-0.145
-0.155
-0.155
-0.16
-0.145
-0.135
-0.135
-0.13
-0.135
-0.145
-0.155
-0.17
-0.185
-0.195
-0.185
-0.185
-0.17
-0.165
-0.155
-0.145
-0.125
-0.13
-0.145
-0.16
-0.165
-0.17
-0.16
-0.16
-0.15
-0.135
-0.115
-0.13
-0.135
-0.18
-0.19
-0.2
-0.205
-0.195
-0.195
-0.17
-0.17
-0.165
-0.135
-0.135
-0.12
-0.115
-0.11
-0.12
-0.145
-0.165
-0.195
-0.21
-0.23
-0.215
-0.21
-0.18
-0.16
-0.13
-0.1
-0.09
-0.11
-0.11
-0.125
-0.13
-0.12
-0.115
-0.115
-0.115
-0.135
-0.15
-0.17
-0.205
-0.21
-0.215
-0.225
-0.225
-0.225
-0.21
-0.195
-0.18
-0.155
-0.16
-0.155
-0.16
-0.18
-0.18
-0.165
-0.155
-0.145
-0.135
-0.12
-0.12
-0.125
-0.13
-0.14
-0.13
-0.125
-0.12
-0.125
-0.14
-0.15
-0.16
-0.135
-0.125
-0.115
-0.145
-0.18
-0.185
-0.185
-0.17
-0.155
-0.155
-0.14
-0.125
-0.135
-0.13
-0.135
-0.15
-0.15
-0.145
-0.125
-0.095
-0.05
-0.015
0.03
0.115
0.195
0.395
0.485
0.55
0.54
0.44
0.235
-0.03
-0.29
-0.465
-0.555
-0.58
-0.545
-0.495
-0.44
-0.39
-0.35
-0.33
-0.33
-0.36
-0.41
-0.455
-0.47
-0.465
-0.43
-0.39
-0.345
-0.32
-0.33
-0.34
-0.355
-0.37
-0.365
-0.335
-0.32
-0.285
-0.26
-0.26
-0.265
-0.27
-0.28
-0.28
-0.265
-0.23
-0.2
-0.17
-0.14
-0.125
-0.115
-0.095
-0.07
-0.05
-0.07
-0.105
-0.165
-0.24
-0.29
-0.29
-0.26
-0.21
-0.16
-0.13
-0.12
-0.125
-0.115
-0.125
-0.125
-0.12
-0.11
-0.12
-0.13
-0.135
-0.14
-0.165
-0.145
-0.145
-0.115
-0.115
-0.11
-0.105
-0.105
-0.1
-0.095
-0.11
-0.125
-0.135
-0.125
-0.11
-0.095
-0.09
-0.065
-0.05
-0.04
-0.025
-0.01
0.025
0.03
0.05
0.07
0.065
0.05
0.055
0.055
0.05
0.045
0.05
0.06
0.075
0.085
0.085
0.11
0.085
0.08
0.07
0.07
0.085
0.085
0.085
0.07
0.07
0.045
0.02
0.01
0
-0.005
-0.005
-0.045
-0.08
-0.1
-0.11
-0.115
-0.08
-0.065
-0.05
-0.04
-0.06
-0.09
-0.15
-0.195
-0.215
-0.225
-0.215
-0.19
-0.15
-0.13
-0.12
-0.125
-0.14
-0.15
-0.17
-0.185
-0.19
-0.18
-0.19
-0.195
-0.195
-0.21
-0.205
-0.19
-0.17
-0.16
-0.155
-0.15
-0.17
-0.195
-0.2
-0.22
-0.205
-0.19
-0.16
-0.125
-0.1
-0.085
-0.095
-0.125
-0.155
-0.165
-0.165
-0.175
-0.15
-0.14
-0.13
-0.105
-0.12
-0.12
-0.145
-0.16
-0.185
-0.2
-0.185
-0.19
-0.19
-0.18
-0.16
-0.135
-0.14
-0.13
-0.145
-0.17
-0.21
-0.22
-0.19
-0.175
-0.155
-0.145
-0.155
-0.165
-0.16
-0.17
-0.175
-0.165
-0.15
-0.145
-0.155
-0.17
-0.2
-0.22
-0.25
-0.25
-0.26
-0.25
-0.23
-0.205
-0.18
-0.155
-0.125
-0.1
-0.095
-0.11
-0.165
-0.215
-0.25
-0.27
-0.275
-0.25
-0.235
-0.205
-0.19
-0.185
-0.185
-0.185
-0.195
-0.205
-0.2
-0.185
-0.18
-0.155
-0.105
-0.045
-0.005
-0.045
-0.15
-0.265
-0.375
-0.41
-0.375
-0.32
-0.25
-0.205
-0.17
-0.17
-0.165
-0.17
-0.16
-0.165
-0.14
-0.12
-0.09
-0.095
-0.095
-0.125
-0.17
-0.235
-0.31
-0.34
-0.34
-0.305
-0.255
-0.205
-0.165
-0.145
-0.14
-0.15
-0.165
-0.165
-0.16
-0.165
-0.165
-0.17
-0.195
-0.21
-0.22
-0.22
-0.21
-0.2
-0.195
-0.18
-0.175
-0.17
-0.16
-0.16
-0.17
-0.175
-0.19
-0.2
-0.21
-0.215
-0.215
-0.205
-0.2
-0.205
-0.205
-0.21
-0.215
-0.21
-0.2
-0.19
-0.18
-0.16
-0.15
-0.135
-0.14
-0.165
-0.2
-0.25
-0.265
-0.28
-0.265
-0.245
-0.23
-0.2
-0.195
-0.195
-0.195
-0.195
-0.185
-0.175
-0.17
-0.155
-0.155
-0.155
-0.185
-0.2
-0.2
-0.195
-0.17
-0.145
-0.115
-0.12
-0.13
-0.145
-0.16
-0.18
-0.225
-0.27
-0.295
-0.29
-0.285
-0.23
-0.195
-0.175
-0.17
-0.175
-0.2
-0.215
-0.245
-0.24
-0.21
-0.19
-0.155
-0.13
-0.12
-0.135
-0.16
-0.195
-0.215
-0.24
-0.24
-0.225
-0.205
-0.19
-0.2
-0.21
-0.2
-0.21
-0.22
-0.23
-0.235
-0.235
-0.245
-0.21
-0.19
-0.165
-0.15
-0.15
-0.16
-0.17
-0.175
-0.19
-0.215
-0.245
-0.255
-0.26
-0.255
-0.24
-0.215
-0.195
-0.185
-0.165
-0.175
-0.205
-0.26
-0.285
-0.3
-0.31
-0.305
-0.265
-0.235
-0.195
-0.18
-0.18
-0.21
-0.24
-0.265
-0.28
-0.265
-0.255
-0.225
-0.215
-0.195
-0.19
-0.175
-0.195
-0.21
-0.215
-0.235
-0.23
-0.235
-0.24
-0.25
-0.26
-0.255
-0.255
-0.245
-0.245
-0.25
-0.24
-0.225
-0.215
-0.215
-0.22
-0.225
-0.235
-0.24
-0.235
-0.22
-0.21
-0.22
-0.21
-0.225
-0.225
-0.255
-0.26
-0.25
-0.24
-0.2
-0.175
-0.16
-0.185
-0.22
-0.235
-0.255
-0.285
-0.305
-0.295
-0.27
-0.25
-0.22
-0.21
-0.2
-0.22
-0.225
-0.23
-0.22
-0.22
-0.23
-0.245
-0.24
-0.23
-0.225
-0.21
-0.215
-0.24
-0.255
-0.26
-0.26
-0.25
-0.245
-0.25
-0.265
-0.285
-0.27
-0.25
-0.22
-0.195
-0.185
-0.18
-0.205
-0.21
-0.225
-0.24
-0.25
-0.26
-0.25
-0.23
-0.205
-0.19
-0.2
-0.2
-0.21
-0.24
-0.255
-0.26
-0.245
-0.225
-0.22
-0.21
-0.205
-0.205
-0.21
-0.215
-0.245
-0.265
-0.28
-0.265
-0.245
-0.225
-0.205
-0.215
-0.23
-0.24
-0.235
-0.2
-0.185
-0.17
-0.175
-0.205
-0.235
-0.27
-0.27
-0.26
-0.255
-0.245
-0.225
-0.2
-0.19
-0.18
-0.19
-0.2
-0.205
-0.205
-0.205
-0.195
-0.19
-0.19
-0.205
-0.21
-0.225
-0.24
-0.245
-0.245
-0.225
-0.22
-0.19
-0.175
-0.17
-0.17
-0.19
-0.205
-0.235
-0.235
-0.235
-0.215
-0.195
-0.18
-0.155
-0.135
-0.135
-0.13
-0.14
-0.165
-0.17
-0.17
-0.165
-0.145
-0.135
-0.105
-0.1
-0.1
-0.13
-0.16
-0.2
-0.225
-0.245
-0.25
-0.24
-0.22
-0.185
-0.175
-0.145
-0.12
-0.105
-0.11
-0.135
-0.175
-0.23
-0.28
-0.325
-0.345
-0.345
-0.325
-0.3
-0.27
-0.24
-0.225
-0.205
-0.205
-0.2
-0.205
-0.22
-0.24
-0.265
-0.285
-0.285
-0.285
-0.28
-0.25
-0.235
-0.235
-0.22
-0.205
-0.16
-0.14
-0.13
-0.17
-0.225
-0.28
-0.32
-0.32
-0.32
-0.275
-0.24
-0.2
-0.16
-0.145
-0.095
-0.02
0.08
0.21
0.34
0.44
0.525
0.555
0.505
0.355
0.095
-0.19
-0.42
-0.575
-0.625
-0.62
-0.585
-0.54
-0.505
-0.485
-0.475
-0.505
-0.52
-0.545
-0.54
-0.525
-0.5
-0.46
-0.42
-0.395
-0.385
-0.365
-0.375
-0.395
-0.44
-0.48
-0.505
-0.51
-0.485
-0.445
-0.395
-0.34
-0.3
-0.25
-0.215
-0.195
-0.205
-0.215
-0.25
-0.28
-0.295
-0.29
-0.265
-0.23
-0.195
-0.185
-0.185
-0.21
-0.235
-0.26
-0.28
-0.3
-0.32
-0.315
-0.285
-0.26
-0.24
-0.225
-0.205
-0.19
-0.185
-0.195
-0.215
-0.245
-0.245
-0.255
-0.235
-0.195
-0.175
-0.15
-0.125
-0.135
-0.13
-0.145
-0.175
-0.19
-0.185
-0.185
-0.175
-0.16
-0.19
-0.195
-0.18
-0.165
-0.13
-0.105
-0.095
-0.1
-0.1
-0.105
-0.09
-0.1
-0.105
-0.105
-0.1
-0.075
-0.05
-0.035
-0.015
0.005
0.025
0.02
0.03
0.03
0.01
-0.005
-0.02
-0.025
-0.03
-0.02
0
0.035
0.07
0.085
0.075
0.04
-0.02
-0.065
-0.085
-0.085
-0.085
-0.07
-0.04
-0.03
-0.03
-0.04
-0.045
-0.03
-0.03
-0.045
-0.06
-0.09
-0.145
-0.165
-0.19
-0.185
-0.18
-0.175
-0.18
-0.185
-0.19
-0.18
-0.165
-0.16
-0.18
-0.21
-0.255
-0.26
-0.265
-0.255
-0.24
-0.245
-0.27
-0.275
-0.275
-0.25
-0.245
-0.25
-0.245
-0.245
-0.23
-0.22
-0.195
-0.17
-0.16
-0.15
-0.165
-0.175
-0.175
-0.175
-0.2
-0.215
-0.215
-0.205
-0.2
-0.2
-0.185
-0.175
-0.175
-0.16
-0.16
-0.155
-0.185
-0.215
-0.225
-0.215
-0.18
-0.155
-0.14
-0.135
-0.135
-0.145
-0.16
-0.18
-0.175
-0.18
-0.17
-0.17
-0.165
-0.145
-0.145
-0.17
-0.21
-0.22
-0.215
-0.205
-0.19
-0.175
-0.185
-0.195
-0.21
-0.215
-0.2
-0.185
-0.17
-0.165
-0.17
-0.19
-0.215
-0.235
-0.23
-0.21
-0.185
-0.165
-0.175
-0.18
-0.185
-0.2
-0.2
-0.2
-0.19
-0.185
-0.18
-0.16
-0.115
-0.04
0.06
0.18
0.315
0.44
0.53
0.56
0.515
0.33
0.065
-0.205
-0.405
-0.525
-0.57
-0.555
-0.535
-0.505
-0.48
-0.45
-0.445
-0.435
-0.455
-0.49
-0.495
-0.49
-0.455
-0.42
-0.39
-0.375
-0.375
-0.405
-0.42
-0.42
-0.405
-0.405
-0.39
-0.38
-0.35
-0.325
-0.28
-0.23
-0.18
-0.135
-0.145
-0.165
-0.185
-0.2
-0.21
-0.195
-0.205
-0.205
-0.21
-0.22
-0.245
-0.235
-0.215
-0.19
-0.18
-0.175
-0.16
-0.175
-0.19
-0.2
-0.205
-0.205
-0.205
-0.2
-0.185
-0.16
-0.135
-0.12
-0.11
-0.14
-0.14
-0.155
-0.16
-0.175
-0.175
-0.185
-0.2
-0.185
-0.15
-0.125
-0.09
-0.085
-0.08
-0.095
-0.12
-0.125
-0.12
-0.1
-0.085
-0.05
-0.015
0.02
0.05
0.065
0.045
0.015
-0.02
-0.05
-0.045
-0.04
0
0.015
0.045
0.045
0.055
0.055
0.06
0.055
0.045
0.04
0.045
0.05
0.045
0.02
-0.005
-0.02
-0.035
-0.045
-0.07
-0.065
-0.085
-0.105
-0.135
-0.15
-0.15
-0.145
-0.135
-0.135
-0.135
-0.13
-0.145
-0.175
-0.215
-0.255
-0.27
-0.3
-0.295
-0.28
-0.255
-0.24
-0.21
-0.185
-0.175
-0.14
-0.12
-0.085
-0.105
-0.15
-0.26
-0.365
-0.43
-0.42
-0.375
-0.305
-0.23
-0.19
-0.175
-0.18
-0.2
-0.235
-0.28
-0.275
-0.28
-0.26
-0.24
-0.235
-0.24
-0.25
-0.265
-0.28
-0.28
-0.265
-0.245
-0.24
-0.26
-0.27
-0.275
-0.265
-0.225
-0.195
-0.175
-0.195
-0.225
-0.265
-0.285
-0.285
-0.275
-0.235
-0.22
-0.21
-0.215
-0.21
-0.195
-0.19
-0.185
-0.17
-0.175
-0.195
-0.21
-0.22
-0.26
-0.285
-0.285
-0.27
-0.245
-0.225
-0.225
-0.23
-0.23
-0.215
-0.22
-0.215
-0.23
-0.245
-0.255
-0.255
-0.255
-0.24
-0.23
-0.235
-0.23
-0.22
-0.23
-0.245
-0.26
-0.27
-0.255
-0.255
-0.235
-0.22
-0.21
-0.21
-0.2
-0.22
-0.22
-0.225
-0.225
-0.25
-0.25
-0.265
-0.265
-0.255
-0.225
-0.205
-0.195
-0.19
-0.19
-0.19
-0.18
-0.165
-0.12
-0.08
-0.02
0.05
0.16
0.25
0.355
0.38
0.335
0.195
-0.04
-0.29
-0.485
-0.59
-0.615
-0.59
-0.54
-0.5
-0.465
-0.435
-0.415
-0.4
-0.39
-0.395
-0.415
-0.44
-0.48
-0.5
-0.505
-0.515
-0.515
-0.51
-0.49
-0.465
-0.415
-0.39
-0.37
-0.35
-0.34
-0.315
-0.315
-0.31
-0.285
-0.28
-0.26
-0.265
-0.265
-0.26
-0.25
-0.24
-0.235
-0.24
-0.225
-0.21
-0.185
-0.16
-0.155
-0.16
-0.165
-0.185
-0.235
-0.285
-0.335
-0.33
-0.31
-0.285
-0.24
-0.21
-0.185
-0.17
-0.175
-0.175
-0.18
-0.185
-0.205
-0.22
-0.235
-0.25
-0.23
-0.225
-0.2
-0.185
-0.175
-0.15
-0.115
-0.09
-0.055
-0.065
-0.125
-0.185
-0.23
-0.25
-0.235
-0.2
-0.145
-0.105
-0.065
-0.045
-0.055
-0.06
-0.03
-0.01
0.02
0.025
0.035
0.02
-0.02
-0.05
-0.075
-0.08
-0.07
-0.04
-0.02
0.015
0.05
0.075
0.075
0.04
0.025
0.01
-0.01
-0.015
-0.035
-0.065
-0.105
-0.135
-0.13
-0.13
-0.125
-0.105
-0.095
-0.1
-0.12
-0.12
-0.125
-0.115
-0.1
-0.09
-0.095
-0.135
-0.205
-0.28
-0.325
-0.33
-0.31
-0.28
-0.25
-0.225
-0.215
-0.215
-0.2
-0.215
-0.19
-0.16
-0.11
-0.095
-0.145
-0.215
-0.325
-0.395
-0.405
-0.375
-0.31
-0.255
-0.21
-0.19
-0.18
-0.165
-0.19
-0.205
-0.21
-0.25
-0.26
-0.28
-0.275
-0.265
-0.255
-0.225
-0.195
-0.19
-0.2
-0.22
-0.215
-0.22
-0.235
-0.23
-0.21
-0.2
-0.205
-0.215
-0.215
-0.22
-0.22
-0.21
-0.215
-0.22
-0.24
-0.25
-0.25
-0.25
-0.245
-0.235
-0.225
-0.21
-0.195
-0.195
-0.195
-0.21
-0.23
-0.245
-0.255
-0.255
-0.265
-0.25
-0.245
-0.25
-0.24
-0.23
-0.215
-0.215
-0.225
-0.235
-0.24
-0.25
-0.23
-0.245
-0.235
-0.25
-0.26
-0.265
-0.245
-0.235
-0.24
-0.25
-0.245
-0.265
-0.275
-0.255
-0.235
-0.22
-0.225
-0.23
-0.245
-0.25
-0.25
-0.265
-0.285
-0.3
-0.29
-0.28
-0.245
-0.24
-0.245
-0.24
-0.245
-0.24
-0.25
-0.26
-0.26
-0.26
-0.245
-0.245
-0.25
-0.24
-0.265
-0.26
-0.255
-0.25
-0.235
-0.225
-0.235
-0.25
-0.27
-0.275
-0.265
-0.23
-0.215
-0.205
-0.22
-0.235
-0.27
-0.27
-0.26
-0.255
-0.24
-0.245
-0.25
-0.26
-0.25
-0.255
-0.25
-0.235
-0.23
-0.245
-0.24
-0.255
-0.25
-0.245
-0.24
-0.225
-0.225
-0.2
-0.21
-0.205
-0.245
-0.27
-0.295
-0.3
-0.29
-0.255
-0.235
-0.22
-0.225
-0.22
-0.24
-0.24
-0.225
-0.235
-0.24
-0.255
-0.24
-0.255
-0.25
-0.245
-0.255
-0.285
-0.3
-0.3
-0.285
-0.275
-0.255
-0.24
-0.23
-0.23
-0.24
-0.25
-0.26
-0.25
-0.25
-0.245
-0.25
-0.25
-0.24
-0.24
-0.235
-0.245
-0.25
-0.25
-0.255
-0.25
-0.23
-0.215
-0.21
-0.23
-0.26
-0.275
-0.295
-0.285
-0.265
-0.255
-0.24
-0.23
-0.24
-0.25
-0.27
-0.285
-0.285
-0.28
-0.26
-0.24
-0.2
-0.19
-0.2
-0.22
-0.245
-0.27
-0.27
-0.265
-0.255
-0.255
-0.285
-0.28
-0.27
-0.25
-0.225
-0.21
-0.19
-0.19
-0.215
-0.26
-0.28
-0.29
-0.295
-0.295
-0.27
-0.255
-0.265
-0.265
-0.27
-0.295
-0.29
-0.285
-0.275
-0.255
-0.215
-0.19
-0.16
-0.155
-0.175
-0.185
-0.22
-0.25
-0.285
-0.305
-0.31
-0.32
-0.305
-0.275
-0.26
-0.24
-0.24
-0.23
-0.245
-0.235
-0.22
-0.205
-0.18
-0.18
-0.165
-0.205
-0.235
-0.26
-0.28
-0.285
-0.295
-0.27
-0.27
-0.255
-0.24
-0.235
-0.205
-0.205
-0.205
-0.22
-0.225
-0.24
-0.25
-0.24
-0.245
-0.23
-0.225
-0.22
-0.23
-0.245
-0.255
-0.26
-0.245
-0.235
-0.225
-0.225
-0.225
-0.21
-0.225
-0.235
-0.235
-0.235
-0.24
-0.25
-0.24
-0.24
-0.22
-0.22
-0.26
-0.275
-0.295
-0.305
-0.31
-0.275
-0.245
-0.23
-0.2
-0.185
-0.19
-0.185
-0.185
-0.21
-0.2
-0.19
-0.195
-0.2
-0.215
-0.26
-0.285
-0.29
-0.29
-0.27
-0.255
-0.24
-0.235
-0.235
-0.245
-0.24
-0.225
-0.21
-0.22
-0.215
-0.215
-0.22
-0.22
-0.23
-0.235
-0.23
-0.215
-0.22
-0.2
-0.215
-0.22
-0.225
-0.245
-0.235
-0.215
-0.19
-0.185
-0.19
-0.22
-0.235
-0.255
-0.245
-0.235
-0.255
-0.255
-0.255
-0.25
-0.23
-0.22
-0.215
-0.205
-0.22
-0.24
-0.25
-0.265
-0.26
-0.225
-0.215
-0.21
-0.2
-0.21
-0.23
-0.24
-0.25
-0.255
-0.235
-0.225
-0.205
-0.205
-0.225
-0.22
-0.225
-0.215
-0.225
-0.22
-0.225
-0.23
-0.225
-0.245
-0.265
-0.27
-0.25
-0.235
-0.23
-0.225
-0.225
-0.235
-0.235
-0.245
-0.245
-0.25
-0.225
-0.215
-0.2
-0.2
-0.19
-0.22
-0.245
-0.255
-0.25
-0.23
-0.2
-0.175
-0.16
-0.17
-0.205
-0.24
-0.265
-0.27
-0.265
-0.24
-0.22
-0.2
-0.18
-0.16
-0.145
-0.155
-0.12
-0.105
-0.12
-0.145
-0.185
-0.205
-0.2
-0.2
-0.18
-0.165
-0.175
-0.17
-0.175
-0.17
-0.18
-0.195
-0.195
-0.19
-0.18
-0.18
-0.18
-0.175
-0.19
-0.2
-0.2
-0.205
-0.21
-0.21
-0.19
-0.2
-0.21
-0.205
-0.22
-0.24
-0.245
-0.26
-0.265
-0.28
-0.29
-0.27
-0.25
-0.24
-0.23
-0.23
-0.235
-0.245
-0.26
-0.26
-0.26
-0.245
-0.245
-0.215
-0.21
-0.21
-0.215
-0.23
-0.235
-0.23
-0.22
-0.21
-0.2
-0.22
-0.235
-0.255
-0.25
-0.24
-0.22
-0.195
-0.17
-0.16
-0.115
-0.075
-0.015
0.075
0.165
0.26
0.29
0.24
0.09
-0.115
-0.31
-0.455
-0.525
-0.545
-0.535
-0.52
-0.485
-0.46
-0.44
-0.43
-0.445
-0.46
-0.475
-0.47
-0.455
-0.435
-0.43
-0.43
-0.45
-0.44
-0.44
-0.435
-0.425
-0.41
-0.415
-0.425
-0.415
-0.395
-0.38
-0.36
-0.33
-0.305
-0.28
-0.245
-0.22
-0.2
-0.205
-0.225
-0.24
-0.255
-0.245
-0.24
-0.225
-0.215
-0.225
-0.24
-0.245
-0.26
-0.28
-0.275
-0.275
-0.26
-0.25
-0.235
-0.225
-0.205
-0.2
-0.195
-0.195
-0.195
-0.195
-0.205
-0.22
-0.225
-0.215
-0.205
-0.18
-0.165
-0.175
-0.2
-0.235
-0.265
-0.25
-0.23
-0.2
-0.175
-0.155
-0.15
-0.155
-0.135
-0.12
-0.1
-0.1
-0.105
-0.125
-0.15
-0.135
-0.12
-0.085
-0.07
-0.055
-0.04
-0.05
-0.04
-0.045
-0.035
-0.025
-0.025
-0.03
-0.035
-0.045
-0.045
-0.065
-0.06
-0.06
-0.065
-0.04
-0.01
0.015
0.03
0.04
0.01
-0.015
-0.05
-0.08
-0.085
-0.09
-0.07
-0.055
-0.05
-0.05
-0.08
-0.08
-0.08
-0.055
-0.06
-0.08
-0.11
-0.14
-0.145
-0.135
-0.125
-0.12
-0.135
-0.14
-0.185
-0.215
-0.235
-0.245
-0.245
-0.235
-0.24
-0.25
-0.26
-0.245
-0.23
-0.2
-0.2
-0.23
-0.265
-0.285
-0.29
-0.275
-0.255
-0.22
-0.19
-0.17
-0.16
-0.145
-0.15
-0.16
-0.165
-0.175
-0.155
-0.155
-0.145
-0.15
-0.145
-0.15
-0.15
-0.155
-0.17
-0.17
-0.19
-0.21
-0.22
-0.23
-0.2
-0.185
-0.16
-0.16
-0.175
-0.195
-0.195
-0.185
-0.19
-0.175
-0.175
-0.18
-0.185
-0.185
-0.175
-0.18
-0.17
-0.15
-0.145
-0.145
-0.155
-0.185
-0.21
-0.2
-0.19
-0.175
-0.155
-0.14
-0.14
-0.14
-0.16
-0.19
-0.225
-0.245
-0.25
-0.235
-0.22
-0.205
-0.18
-0.145
-0.155
-0.15
-0.165
-0.175
-0.19
-0.19
-0.215
-0.195
-0.17
-0.145
-0.105
-0.04
0.015
0.095
0.185
0.245
0.28
0.225
0.115
-0.055
-0.22
-0.36
-0.44
-0.465
-0.495
-0.48
-0.46
-0.42
-0.385
-0.365
-0.36
-0.375
-0.405
-0.44
-0.45
-0.425
-0.4
-0.365
-0.375
-0.39
-0.42
-0.435
-0.425
-0.42
-0.41
-0.37
-0.325
-0.305
-0.29
-0.28
-0.28
-0.295
-0.305
-0.31
-0.285
-0.25
-0.21
-0.19
-0.16
-0.16
-0.165
-0.185
-0.215
-0.225
-0.25
-0.25
-0.24
-0.235
-0.22
-0.215
-0.2
-0.2
-0.195
-0.185
-0.18
-0.18
-0.175
-0.19
-0.17
-0.16
-0.17
-0.19
-0.21
-0.215
-0.235
-0.22
-0.2
-0.185
-0.175
-0.175
-0.185
-0.19
-0.19
-0.185
-0.185
-0.16
-0.145
-0.13
-0.135
-0.135
-0.13
-0.13
-0.125
-0.115
-0.1
-0.08
-0.08
-0.07
-0.07
-0.055
-0.065
-0.06
-0.06
-0.06
-0.055
-0.03
-0.015
0.015
0.02
0.03
0.01
-0.025
-0.04
-0.055
-0.06
-0.065
-0.055
-0.06
-0.035
-0.035
-0.03
-0.04
-0.04
-0.055
-0.095
-0.115
-0.13
-0.14
-0.14
-0.13
-0.135
-0.145
-0.135
-0.14
-0.17
-0.165
-0.175
-0.19
-0.2
-0.21
-0.22
-0.23
-0.23
-0.21
-0.19
-0.2
-0.225
-0.25
-0.27
-0.285
-0.265
-0.25
-0.215
-0.195
-0.18
-0.145
-0.145
-0.14
-0.14
-0.16
-0.21
-0.24
-0.285
-0.29
-0.275
-0.255
-0.235
-0.2
-0.185
-0.155
-0.15
-0.14
-0.145
-0.18
-0.225
-0.245
-0.275
-0.26
-0.24
-0.225
-0.205
-0.19
-0.185
-0.205
-0.18
-0.18
-0.19
-0.195
-0.205
-0.205
-0.21
-0.2
-0.185
-0.185
-0.215
-0.22
-0.225
-0.225
-0.23
-0.245
-0.24
-0.235
-0.22
-0.2
-0.195
-0.215
-0.235
-0.24
-0.25
-0.245
-0.23
-0.235
-0.225
-0.245
-0.23
-0.23
-0.23
-0.23
-0.235
-0.235
-0.245
-0.25
-0.26
-0.255
-0.26
-0.24
-0.225
-0.205
-0.205
-0.21
-0.23
-0.235
-0.26
-0.275
-0.28
-0.28
-0.265
-0.235
-0.225
-0.205
-0.21
-0.2
-0.21
-0.21
-0.225
-0.25
-0.26
-0.27
-0.26
-0.255
-0.24
-0.245
-0.25
-0.25
-0.255
-0.23
-0.23
-0.225
-0.24
-0.245
-0.245
-0.235
-0.22
-0.225
-0.245
-0.255
-0.255
-0.26
-0.255
-0.255
-0.265
-0.265
-0.255
-0.245
-0.22
-0.205
-0.205
-0.225
-0.25
-0.265
-0.275
-0.28
-0.27
-0.265
-0.255
-0.25
-0.26
-0.27
-0.255
-0.23
-0.22
-0.225
-0.225
-0.235
-0.255
-0.265
-0.255
-0.245
-0.23
-0.23
-0.225
-0.24
-0.25
-0.265
-0.285
-0.285
-0.295
-0.285
-0.275
-0.255
-0.24
-0.24
-0.24
-0.25
-0.26
-0.265
-0.275
-0.26
-0.26
-0.235
-0.235
-0.25
-0.265
-0.275
-0.285
-0.28
-0.275
-0.26
-0.255
-0.24
-0.225
-0.215
-0.225
-0.24
-0.24
-0.26
-0.29
-0.305
-0.3
-0.295
-0.265
-0.25
-0.255
-0.27
-0.27
-0.26
-0.26
-0.245
-0.21
-0.205
-0.22
-0.25
-0.28
-0.285
-0.285
-0.25
-0.22
-0.215
-0.215
-0.26
-0.295
-0.32
-0.32
-0.3
-0.265
-0.245
-0.23
-0.225
-0.225
-0.245
-0.26
-0.275
-0.26
-0.245
-0.245
-0.225
-0.23
-0.245
-0.245
-0.27
-0.285
-0.285
-0.285
-0.255
-0.235
-0.23
-0.22
-0.215
-0.23
-0.235
-0.235
-0.245
-0.265
-0.28
-0.275
-0.27
-0.27
-0.26
-0.27
-0.265
-0.255
-0.25
-0.25
-0.25
-0.25
-0.27
-0.265
-0.26
-0.25
-0.235
-0.23
-0.22
-0.23
-0.245
-0.28
-0.29
-0.285
-0.285
-0.285
-0.31
-0.285
-0.27
-0.26
-0.25
-0.245
-0.265
-0.255
-0.27
-0.28
-0.285
-0.295
-0.29
-0.285
-0.26
-0.27
-0.265
-0.265
-0.29
-0.275
-0.29
-0.295
-0.28
-0.28
-0.27
-0.265
-0.245
-0.23
-0.225
-0.235
-0.27
-0.3
-0.32
-0.315
-0.295
-0.285
-0.275
-0.27
-0.255
-0.25
-0.24
-0.26
-0.275
-0.275
-0.295
-0.295
-0.29
-0.29
-0.27
-0.255
-0.25
-0.24
-0.245
-0.25
-0.255
-0.275
-0.28
-0.295
-0.29
-0.295
-0.29
-0.285
-0.28
-0.265
-0.265
-0.265
-0.27
-0.28
-0.295
-0.295
-0.3
-0.295
-0.285
-0.27
-0.255
-0.235
-0.22
-0.205
-0.215
-0.23
-0.265
-0.3
-0.31
-0.315
-0.305
-0.28
-0.265
-0.275
-0.27
-0.3
-0.315
-0.325
-0.315
-0.28
-0.26
-0.23
-0.215
-0.205
-0.23
-0.255
-0.275
-0.295
-0.29
-0.26
-0.245
-0.22
-0.205
-0.225
-0.23
-0.24
-0.22
-0.2
-0.16
-0.155
-0.15
-0.17
-0.2
-0.23
-0.27
-0.27
