 Sample Value
-0.125
-0.125
-0.125
-0.125
-0.125
-0.125
-0.125
-0.125
-0.135
-0.125
-0.125
-0.12
-0.095
-0.085
-0.105
-0.17
-0.225
-0.255
-0.28
-0.295
-0.34
-0.395
-0.41
-0.405
-0.38
-0.37
-0.39
-0.41
-0.425
-0.42
-0.405
-0.37
-0.375
-0.39
-0.41
-0.405
-0.395
-0.375
-0.39
-0.395
-0.395
-0.395
-0.385
-0.38
-0.385
-0.4
-0.405
-0.405
-0.405
-0.415
-0.435
-0.425
-0.425
-0.39
-0.375
-0.365
-0.37
-0.365
-0.38
-0.405
-0.405
-0.39
-0.365
-0.33
-0.32
-0.295
-0.27
-0.28
-0.34
-0.44
-0.51
-0.52
-0.51
-0.51
-0.535
-0.54
-0.585
-0.625
-0.64
-0.65
-0.685
-0.73
-0.78
-0.835
-0.885
-0.915
-0.94
-0.975
-0.98
-0.94
-0.915
-0.895
-0.89
-0.83
-0.76
-0.7
-0.625
-0.58
-0.545
-0.505
-0.485
-0.445
-0.395
-0.37
-0.37
-0.36
-0.36
-0.355
-0.325
-0.315
-0.32
-0.345
-0.345
-0.33
-0.3
-0.285
-0.3
-0.29
-0.295
-0.3
-0.29
-0.28
-0.285
-0.32
-0.32
-0.31
-0.295
-0.285
-0.275
-0.285
-0.29
-0.295
-0.285
-0.285
-0.29
-0.285
-0.275
-0.28
-0.27
-0.26
-0.27
-0.27
-0.275
-0.26
-0.24
-0.225
-0.24
-0.265
-0.28
-0.275
-0.24
-0.22
-0.22
-0.225
-0.24
-0.22
-0.2
-0.19
-0.185
-0.22
-0.245
-0.225
-0.195
-0.185
-0.165
-0.18
-0.19
-0.185
-0.18
-0.165
-0.17
-0.155
-0.16
-0.175
-0.175
-0.145
-0.17
-0.16
-0.165
-0.165
-0.16
-0.155
-0.165
-0.17
-0.19
-0.195
-0.195
-0.18
-0.18
-0.2
-0.2
-0.205
-0.2
-0.19
-0.19
-0.2
-0.23
-0.225
-0.21
-0.215
-0.205
-0.215
-0.23
-0.26
-0.255
-0.25
-0.24
-0.245
-0.25
-0.265
-0.27
-0.255
-0.265
-0.265
-0.27
-0.28
-0.26
-0.255
-0.26
-0.27
-0.275
-0.27
-0.255
-0.255
-0.26
-0.27
-0.275
-0.27
-0.265
-0.255
-0.265
-0.28
-0.285
-0.285
-0.28
-0.26
-0.265
-0.27
-0.28
-0.285
-0.285
-0.26
-0.255
-0.27
-0.275
-0.285
-0.27
-0.275
-0.29
-0.305
-0.32
-0.305
-0.29
-0.275
-0.285
-0.31
-0.325
-0.315
-0.315
-0.3
-0.31
-0.335
-0.34
-0.365
-0.355
-0.335
-0.34
-0.34
-0.375
-0.365
-0.35
-0.34
-0.36
-0.36
-0.375
-0.37
-0.355
-0.35
-0.35
-0.36
-0.37
-0.375
-0.375
-0.35
-0.36
-0.36
-0.38
-0.375
-0.355
-0.345
-0.34
-0.345
-0.355
-0.36
-0.345
-0.335
-0.345
-0.34
-0.34
-0.34
-0.33
-0.33
-0.325
-0.33
-0.335
-0.33
-0.31
-0.295
-0.3
-0.32
-0.33
-0.345
-0.325
-0.315
-0.31
-0.315
-0.345
-0.33
-0.31
-0.29
-0.315
-0.335
-0.335
-0.345
-0.325
-0.305
-0.3
-0.305
-0.305
-0.315
-0.3
-0.29
-0.3
-0.32
-0.325
-0.32
-0.305
-0.305
-0.31
-0.31
-0.31
-0.305
-0.3
-0.28
-0.265
-0.275
-0.28
-0.265
-0.25
-0.235
-0.225
-0.225
-0.23
-0.2
-0.18
-0.155
-0.145
-0.15
-0.15
-0.12
-0.105
-0.095
-0.085
-0.09
-0.095
-0.095
-0.075
-0.055
-0.05
-0.065
-0.11
-0.135
-0.165
-0.185
-0.22
-0.275
-0.32
-0.35
-0.37
-0.35
-0.35
-0.355
-0.36
-0.365
-0.36
-0.345
-0.34
-0.355
-0.37
-0.38
-0.39
-0.36
-0.34
-0.32
-0.34
-0.36
-0.355
-0.345
-0.34
-0.355
-0.35
-0.35
-0.345
-0.35
-0.355
-0.37
-0.37
-0.36
-0.345
-0.33
-0.33
-0.35
-0.36
-0.37
-0.375
-0.385
-0.39
-0.375
-0.345
-0.315
-0.275
-0.25
-0.265
-0.34
-0.425
-0.495
-0.51
-0.495
-0.485
-0.495
-0.53
-0.575
-0.6
-0.63
-0.655
-0.68
-0.725
-0.78
-0.845
-0.9
-0.915
-0.935
-0.935
-0.915
-0.88
-0.855
-0.82
-0.755
-0.685
-0.61
-0.55
-0.51
-0.48
-0.44
-0.39
-0.355
-0.315
-0.3
-0.3
-0.3
-0.3
-0.29
-0.275
-0.265
-0.275
-0.29
-0.3
-0.275
-0.255
-0.245
-0.26
-0.28
-0.275
-0.26
-0.245
-0.24
-0.25
-0.245
-0.26
-0.265
-0.27
-0.24
-0.23
-0.22
-0.225
-0.22
-0.225
-0.225
-0.225
-0.24
-0.24
-0.24
-0.23
-0.2
-0.195
-0.2
-0.215
-0.23
-0.215
-0.18
-0.18
-0.185
-0.195
-0.2
-0.195
-0.175
-0.155
-0.155
-0.175
-0.17
-0.145
-0.14
-0.15
-0.16
-0.155
-0.14
-0.135
-0.115
-0.12
-0.11
-0.115
-0.11
-0.11
-0.095
-0.11
-0.115
-0.13
-0.12
-0.105
-0.1
-0.11
-0.115
-0.12
-0.105
-0.085
-0.09
-0.1
-0.115
-0.13
-0.125
-0.1
-0.1
-0.115
-0.13
-0.145
-0.155
-0.16
-0.14
-0.14
-0.145
-0.165
-0.19
-0.195
-0.17
-0.165
-0.18
-0.19
-0.205
-0.2
-0.17
-0.19
-0.205
-0.21
-0.215
-0.215
-0.205
-0.205
-0.215
-0.225
-0.21
-0.2
-0.195
-0.21
-0.225
-0.24
-0.24
-0.24
-0.245
-0.245
-0.23
-0.225
-0.22
-0.225
-0.235
-0.235
-0.26
-0.265
-0.25
-0.235
-0.225
-0.235
-0.25
-0.285
-0.28
-0.26
-0.25
-0.26
-0.27
-0.275
-0.285
-0.265
-0.26
-0.27
-0.3
-0.305
-0.3
-0.31
-0.29
-0.27
-0.3
-0.32
-0.31
-0.305
-0.285
-0.285
-0.295
-0.315
-0.32
-0.32
-0.315
-0.32
-0.315
-0.34
-0.335
-0.315
-0.31
-0.32
-0.335
-0.34
-0.345
-0.33
-0.315
-0.32
-0.325
-0.34
-0.345
-0.34
-0.33
-0.33
-0.31
-0.315
-0.305
-0.31
-0.31
-0.305
-0.315
-0.32
-0.305
-0.3
-0.3
-0.305
-0.305
-0.32
-0.32
-0.31
-0.31
-0.305
-0.295
-0.295
-0.3
-0.295
-0.3
-0.295
-0.305
-0.305
-0.285
-0.275
-0.29
-0.285
-0.285
-0.315
-0.3
-0.29
-0.285
-0.295
-0.3
-0.29
-0.285
-0.265
-0.27
-0.28
-0.29
-0.295
-0.3
-0.285
-0.275
-0.27
-0.27
-0.285
-0.29
-0.28
-0.275
-0.275
-0.275
-0.275
-0.26
-0.225
-0.205
-0.2
-0.205
-0.215
-0.205
-0.2
-0.175
-0.15
-0.12
-0.115
-0.09
-0.085
-0.065
-0.065
-0.085
-0.08
-0.04
0.005
0.01
0.005
-0.01
-0.04
-0.08
-0.12
-0.135
-0.175
-0.215
-0.265
-0.305
-0.315
-0.315
-0.315
-0.305
-0.32
-0.315
-0.305
-0.29
-0.305
-0.315
-0.325
-0.315
-0.315
-0.305
-0.31
-0.31
-0.315
-0.32
-0.315
-0.305
-0.285
-0.285
-0.31
-0.32
-0.32
-0.31
-0.345
-0.34
-0.35
-0.345
-0.345
-0.32
-0.315
-0.315
-0.345
-0.34
-0.32
-0.315
-0.325
-0.35
-0.34
-0.32
-0.285
-0.27
-0.265
-0.28
-0.35
-0.425
-0.465
-0.47
-0.49
-0.51
-0.53
-0.565
-0.605
-0.625
-0.655
-0.68
-0.705
-0.76
-0.82
-0.86
-0.9
-0.915
-0.925
-0.895
-0.84
-0.815
-0.79
-0.745
-0.67
-0.58
-0.515
-0.475
-0.46
-0.425
-0.395
-0.345
-0.315
-0.295
-0.29
-0.28
-0.28
-0.285
-0.27
-0.26
-0.255
-0.265
-0.265
-0.265
-0.265
-0.265
-0.26
-0.27
-0.285
-0.26
-0.215
-0.19
-0.21
-0.23
-0.255
-0.255
-0.23
-0.235
-0.235
-0.245
-0.23
-0.215
-0.22
-0.22
-0.22
-0.225
-0.23
-0.225
-0.205
-0.19
-0.2
-0.215
-0.23
-0.22
-0.185
-0.17
-0.16
-0.18
-0.2
-0.205
-0.175
-0.135
-0.11
-0.145
-0.175
-0.18
-0.155
-0.135
-0.125
-0.145
-0.15
-0.14
-0.145
-0.12
-0.095
-0.1
-0.12
-0.105
-0.11
-0.11
-0.115
-0.115
-0.125
-0.105
-0.095
-0.09
-0.085
-0.1
-0.13
-0.15
-0.14
-0.11
-0.07
-0.065
-0.105
-0.135
-0.14
-0.11
-0.09
-0.105
-0.125
-0.13
-0.145
-0.13
-0.15
-0.18
-0.185
-0.19
-0.185
-0.17
-0.175
-0.2
-0.21
-0.215
-0.21
-0.21
-0.225
-0.235
-0.245
-0.25
-0.23
-0.22
-0.225
-0.235
-0.265
-0.255
-0.25
-0.24
-0.24
-0.255
-0.27
-0.275
-0.265
-0.25
-0.265
-0.27
-0.3
-0.275
-0.265
-0.265
-0.26
-0.27
-0.295
-0.295
-0.285
-0.275
-0.275
-0.295
-0.31
-0.325
-0.31
-0.29
-0.29
-0.295
-0.305
-0.315
-0.31
-0.305
-0.29
-0.31
-0.335
-0.345
-0.345
-0.335
-0.33
-0.33
-0.34
-0.35
-0.345
-0.33
-0.33
-0.345
-0.375
-0.36
-0.35
-0.34
-0.345
-0.37
-0.37
-0.36
-0.365
-0.345
-0.355
-0.37
-0.37
-0.375
-0.355
-0.345
-0.34
-0.35
-0.365
-0.37
-0.365
-0.355
-0.365
-0.375
-0.37
-0.365
-0.34
-0.315
-0.335
-0.35
-0.365
-0.35
-0.35
-0.335
-0.34
-0.355
-0.35
-0.335
-0.34
-0.33
-0.35
-0.355
-0.35
-0.325
-0.315
-0.325
-0.34
-0.365
-0.36
-0.34
-0.325
-0.32
-0.33
-0.34
-0.355
-0.33
-0.32
-0.325
-0.335
-0.325
-0.33
-0.325
-0.32
-0.33
-0.34
-0.345
-0.325
-0.31
-0.31
-0.31
-0.31
-0.325
-0.32
-0.305
-0.3
-0.305
-0.335
-0.335
-0.335
-0.305
-0.29
-0.3
-0.315
-0.335
-0.32
-0.305
-0.29
-0.295
-0.3
-0.32
-0.305
-0.285
-0.28
-0.275
-0.265
-0.25
-0.23
-0.22
-0.21
-0.195
-0.19
-0.18
-0.165
-0.135
-0.11
-0.09
-0.095
-0.1
-0.11
-0.115
-0.09
-0.075
-0.075
-0.07
-0.055
-0.04
-0.065
-0.115
-0.165
-0.225
-0.245
-0.285
-0.305
-0.35
-0.365
-0.37
-0.355
-0.35
-0.345
-0.345
-0.36
-0.36
-0.35
-0.34
-0.335
-0.355
-0.365
-0.38
-0.37
-0.355
-0.33
-0.34
-0.35
-0.355
-0.355
-0.35
-0.34
-0.345
-0.355
-0.36
-0.35
-0.35
-0.33
-0.335
-0.355
-0.365
-0.355
-0.355
-0.35
-0.345
-0.34
-0.34
-0.35
-0.36
-0.37
-0.38
-0.345
-0.325
-0.28
-0.24
-0.22
-0.245
-0.32
-0.44
-0.515
-0.515
-0.51
-0.5
-0.505
-0.555
-0.6
-0.635
-0.65
-0.675
-0.705
-0.745
-0.785
-0.845
-0.87
-0.9
-0.935
-0.945
-0.91
-0.87
-0.845
-0.82
-0.765
-0.69
-0.61
-0.55
-0.515
-0.475
-0.44
-0.385
-0.37
-0.33
-0.305
-0.28
-0.28
-0.295
-0.305
-0.29
-0.28
-0.29
-0.29
-0.29
-0.285
-0.275
-0.27
-0.285
-0.28
-0.3
-0.3
-0.27
-0.255
-0.26
-0.26
-0.28
-0.27
-0.27
-0.255
-0.27
-0.26
-0.28
-0.275
-0.27
-0.25
-0.24
-0.235
-0.265
-0.265
-0.245
-0.245
-0.24
-0.24
-0.245
-0.235
-0.205
-0.185
-0.2
-0.205
-0.22
-0.215
-0.205
-0.2
-0.2
-0.195
-0.195
-0.185
-0.18
-0.18
-0.17
-0.17
-0.19
-0.195
-0.16
-0.15
-0.135
-0.16
-0.17
-0.16
-0.15
-0.13
-0.13
-0.15
-0.155
-0.16
-0.15
-0.16
-0.16
-0.15
-0.145
-0.15
-0.15
-0.14
-0.155
-0.15
-0.175
-0.18
-0.17
-0.175
-0.18
-0.2
-0.215
-0.215
-0.21
-0.2
-0.21
-0.215
-0.235
-0.245
-0.24
-0.25
-0.255
-0.25
-0.265
-0.26
-0.25
-0.255
-0.24
-0.24
-0.255
-0.265
-0.27
-0.255
-0.255
-0.25
-0.25
-0.255
-0.26
-0.245
-0.25
-0.25
-0.275
-0.265
-0.265
-0.25
-0.255
-0.27
-0.275
-0.27
-0.28
-0.265
-0.265
-0.28
-0.285
-0.29
-0.27
-0.26
-0.275
-0.3
-0.295
-0.275
-0.275
-0.275
-0.275
-0.29
-0.315
-0.305
-0.315
-0.29
-0.285
-0.305
-0.31
-0.32
-0.305
-0.315
-0.31
-0.345
-0.355
-0.35
-0.335
-0.315
-0.315
-0.35
-0.35
-0.335
-0.335
-0.325
-0.325
-0.34
-0.35
-0.355
-0.35
-0.335
-0.335
-0.34
-0.375
-0.37
-0.345
-0.31
-0.305
-0.32
-0.335
-0.33
-0.315
-0.3
-0.29
-0.305
-0.32
-0.31
-0.32
-0.31
-0.315
-0.33
-0.32
-0.32
-0.31
-0.29
-0.305
-0.3
-0.315
-0.315
-0.32
-0.31
-0.305
-0.305
-0.31
-0.295
-0.28
-0.28
-0.29
-0.315
-0.34
-0.34
-0.315
-0.27
-0.26
-0.27
-0.29
-0.285
-0.29
-0.28
-0.28
-0.3
-0.3
-0.31
-0.29
-0.28
-0.285
-0.29
-0.305
-0.31
-0.28
-0.26
-0.255
-0.24
-0.245
-0.235
-0.22
-0.215
-0.21
-0.2
-0.185
-0.17
-0.14
-0.125
-0.115
-0.105
-0.1
-0.08
-0.065
-0.055
-0.06
-0.06
-0.06
-0.065
-0.06
-0.055
-0.07
-0.09
-0.145
-0.19
-0.225
-0.27
-0.31
-0.345
-0.36
-0.36
-0.345
-0.32
-0.315
-0.325
-0.34
-0.345
-0.345
-0.34
-0.345
-0.37
-0.365
-0.345
-0.335
-0.315
-0.325
-0.345
-0.37
-0.36
-0.335
-0.34
-0.34
-0.335
-0.36
-0.36
-0.35
-0.33
-0.335
-0.325
-0.335
-0.34
-0.345
-0.325
-0.325
-0.34
-0.375
-0.39
-0.37
-0.33
-0.31
-0.3
-0.29
-0.295
-0.345
-0.445
-0.495
-0.525
-0.53
-0.515
-0.525
-0.54
-0.595
-0.64
-0.69
-0.71
-0.73
-0.76
-0.825
-0.875
-0.915
-0.92
-0.915
-0.88
-0.865
-0.85
-0.835
-0.77
-0.665
-0.585
-0.53
-0.485
-0.455
-0.405
-0.355
-0.325
-0.3
-0.295
-0.3
-0.3
-0.29
-0.275
-0.28
-0.285
-0.285
-0.265
-0.245
-0.245
-0.25
-0.28
-0.3
-0.275
-0.23
-0.215
-0.21
-0.22
-0.24
-0.25
-0.255
-0.245
-0.24
-0.25
-0.245
-0.245
-0.235
-0.23
-0.22
-0.225
-0.23
-0.205
-0.2
-0.19
-0.185
-0.18
-0.195
-0.21
-0.215
-0.19
-0.18
-0.175
-0.185
-0.195
-0.18
-0.16
-0.145
-0.16
-0.165
-0.145
-0.145
-0.13
-0.16
-0.17
-0.185
-0.16
-0.115
-0.1
-0.105
-0.125
-0.135
-0.105
-0.07
-0.045
-0.045
-0.1
-0.115
-0.105
-0.095
-0.07
-0.075
-0.09
-0.115
-0.13
-0.125
-0.095
-0.105
-0.145
-0.125
-0.1
-0.1
-0.12
-0.155
-0.165
-0.175
-0.185
-0.17
-0.17
-0.195
-0.235
-0.24
-0.2
-0.165
-0.15
-0.18
-0.205
-0.22
-0.185
-0.17
-0.16
-0.16
-0.19
-0.225
-0.22
-0.2
-0.195
-0.215
-0.19
-0.2
-0.21
-0.215
-0.21
-0.215
-0.22
-0.205
-0.195
-0.175
-0.15
-0.17
-0.2
-0.23
-0.235
-0.225
-0.21
-0.21
-0.215
-0.23
-0.225
-0.22
-0.225
-0.235
-0.24
-0.245
-0.24
-0.245
-0.25
-0.26
-0.275
-0.29
-0.27
-0.23
-0.25
-0.28
-0.305
-0.295
-0.31
-0.33
-0.35
-0.34
-0.345
-0.375
-0.41
-0.345
-0.26
-0.25
-0.3
-0.3
-0.275
-0.245
-0.23
-0.245
-0.28
-0.285
-0.235
-0.195
-0.2
-0.225
-0.24
-0.24
-0.23
-0.225
-0.23
-0.235
-0.245
-0.265
-0.25
-0.22
-0.225
-0.22
-0.24
-0.255
-0.26
-0.235
-0.225
-0.23
-0.245
-0.245
-0.245
-0.23
-0.23
-0.225
-0.245
-0.255
-0.25
-0.235
-0.21
-0.22
-0.255
-0.265
-0.265
-0.26
-0.23
-0.225
-0.225
-0.27
-0.255
-0.265
-0.26
-0.27
-0.25
-0.235
-0.225
-0.25
-0.285
-0.3
-0.27
-0.205
-0.12
-0.105
-0.145
-0.145
-0.14
-0.145
-0.15
-0.16
-0.145
-0.11
-0.09
-0.095
-0.08
-0.065
-0.045
-0.035
-0.045
-0.035
-0.015
-0.005
0
-0.015
0
0.005
0.01
0.01
0.005
-0.03
-0.08
-0.13
-0.165
-0.205
-0.25
-0.28
-0.285
-0.275
-0.24
-0.22
-0.245
-0.28
-0.315
-0.33
-0.3
-0.265
-0.25
-0.265
-0.31
-0.365
-0.39
-0.39
-0.36
-0.3
-0.255
-0.27
-0.295
-0.285
-0.305
-0.325
-0.28
-0.23
-0.205
-0.23
-0.255
-0.255
-0.27
-0.3
-0.31
-0.28
-0.265
-0.26
-0.3
-0.385
-0.43
-0.4
-0.36
-0.38
-0.4
-0.425
-0.465
-0.51
-0.56
-0.59
-0.575
-0.59
-0.61
-0.63
-0.675
-0.705
-0.73
-0.735
-0.75
-0.78
-0.84
-0.905
-0.945
-0.955
-0.9
-0.825
-0.76
-0.73
-0.7
-0.635
-0.565
-0.5
-0.45
-0.405
-0.315
-0.235
-0.215
-0.21
-0.195
-0.195
-0.195
-0.225
-0.215
-0.205
-0.175
-0.19
-0.215
-0.235
-0.23
-0.205
-0.19
-0.18
-0.165
-0.15
-0.15
-0.175
-0.215
-0.26
-0.235
-0.185
-0.115
-0.075
-0.065
-0.1
-0.125
-0.14
-0.165
-0.14
-0.145
-0.135
-0.13
-0.13
-0.125
-0.12
-0.11
-0.11
-0.11
-0.13
-0.12
-0.095
-0.07
-0.06
-0.06
-0.06
-0.075
-0.08
-0.075
-0.07
-0.065
-0.065
-0.065
-0.07
-0.07
-0.075
-0.035
-0.015
-0.03
-0.055
-0.045
-0.025
-0.015
-0.02
-0.005
0.005
-0.01
-0.01
-0.01
-0.01
-0.015
-0.01
-0.01
-0.04
-0.065
-0.08
-0.09
-0.09
-0.055
-0.035
-0.04
-0.075
-0.1
-0.09
-0.075
-0.07
-0.085
-0.115
-0.13
-0.125
-0.125
-0.135
-0.16
-0.17
-0.16
-0.16
-0.165
-0.155
-0.17
-0.18
-0.18
-0.175
-0.18
-0.185
-0.195
-0.205
-0.21
-0.215
-0.205
-0.2
-0.21
-0.21
-0.215
-0.225
-0.225
-0.255
-0.25
-0.255
-0.245
-0.25
-0.25
-0.24
-0.215
-0.21
-0.22
-0.23
-0.225
-0.225
-0.245
-0.27
-0.26
-0.255
-0.245
-0.245
-0.265
-0.285
-0.285
-0.29
-0.285
-0.3
-0.31
-0.315
-0.315
-0.305
-0.305
-0.315
-0.34
-0.35
-0.35
-0.33
-0.325
-0.325
-0.335
-0.37
-0.37
-0.37
-0.345
-0.345
-0.35
-0.365
-0.375
-0.365
-0.355
-0.36
-0.36
-0.355
-0.345
-0.365
-0.405
-0.41
-0.365
-0.33
-0.32
-0.33
-0.36
-0.37
-0.37
-0.37
-0.37
-0.37
-0.365
-0.375
-0.37
-0.38
-0.36
-0.345
-0.34
-0.33
-0.335
-0.36
-0.37
-0.35
-0.34
-0.35
-0.37
-0.39
-0.385
-0.36
-0.35
-0.35
-0.35
-0.36
-0.355
-0.34
-0.355
-0.36
-0.375
-0.36
-0.355
-0.365
-0.375
-0.38
-0.37
-0.355
-0.35
-0.35
-0.36
-0.365
-0.375
-0.375
-0.355
-0.35
-0.345
-0.345
-0.365
-0.37
-0.34
-0.305
-0.3
-0.32
-0.34
-0.33
-0.29
-0.26
-0.26
-0.275
-0.285
-0.29
-0.295
-0.27
-0.24
-0.175
-0.15
-0.155
-0.155
-0.14
-0.12
-0.125
-0.135
-0.125
-0.125
-0.115
-0.1
-0.105
-0.135
-0.175
-0.2
-0.21
-0.235
-0.28
-0.34
-0.39
-0.41
-0.405
-0.385
-0.38
-0.385
-0.395
-0.38
-0.37
-0.365
-0.385
-0.395
-0.4
-0.37
-0.37
-0.37
-0.37
-0.375
-0.385
-0.4
-0.39
-0.36
-0.365
-0.38
-0.395
-0.405
-0.39
-0.365
-0.355
-0.36
-0.38
-0.39
-0.365
-0.345
-0.355
-0.39
-0.445
-0.445
-0.415
-0.385
-0.39
-0.395
-0.425
-0.465
-0.545
-0.61
-0.64
-0.64
-0.65
-0.655
-0.68
-0.72
-0.76
-0.82
-0.86
-0.84
-0.85
-0.9
-0.945
-0.985
-1
-0.96
-0.895
-0.855
-0.84
-0.805
-0.745
-0.665
-0.62
-0.565
-0.52
-0.445
-0.4
-0.355
-0.345
-0.335
-0.33
-0.335
-0.34
-0.315
-0.295
-0.285
-0.285
-0.31
-0.325
-0.315
-0.285
-0.275
-0.28
-0.3
-0.315
-0.3
-0.305
-0.285
-0.265
-0.275
-0.28
-0.28
-0.275
-0.28
-0.29
-0.3
-0.31
-0.285
-0.25
-0.22
-0.225
-0.245
-0.265
-0.25
-0.24
-0.225
-0.225
-0.215
-0.225
-0.22
-0.215
-0.2
-0.2
-0.2
-0.205
-0.205
-0.205
-0.19
-0.195
-0.19
-0.205
-0.19
-0.16
-0.135
-0.125
-0.145
-0.155
-0.14
-0.14
-0.13
-0.135
-0.15
-0.155
-0.15
-0.125
-0.1
-0.11
-0.11
-0.14
-0.13
-0.13
-0.11
-0.13
-0.12
-0.15
-0.145
-0.135
-0.135
-0.155
-0.175
-0.165
-0.14
-0.135
-0.15
-0.175
-0.2
-0.205
-0.2
-0.19
-0.19
-0.215
-0.215
-0.245
-0.235
-0.245
-0.245
-0.25
-0.255
-0.265
-0.25
-0.23
-0.23
-0.25
-0.26
-0.28
-0.26
-0.265
-0.265
-0.295
-0.315
-0.3
-0.255
-0.225
-0.23
-0.26
-0.285
-0.31
-0.305
-0.28
-0.26
-0.245
-0.25
-0.28
-0.28
-0.285
-0.275
-0.28
-0.28
-0.295
-0.305
-0.285
-0.275
-0.275
-0.295
-0.315
-0.31
-0.29
-0.275
-0.295
-0.31
-0.325
-0.305
-0.3
-0.28
-0.31
-0.32
-0.33
-0.305
-0.31
-0.305
-0.315
-0.345
-0.345
-0.34
-0.33
-0.32
-0.33
-0.345
-0.35
-0.35
-0.345
-0.345
-0.345
-0.37
-0.385
-0.375
-0.35
-0.335
-0.325
-0.345
-0.365
-0.38
-0.385
-0.375
-0.37
-0.365
-0.355
-0.35
-0.345
-0.33
-0.345
-0.36
-0.365
-0.35
-0.35
-0.35
-0.365
-0.375
-0.385
-0.375
-0.35
-0.325
-0.32
-0.325
-0.34
-0.34
-0.335
-0.33
-0.33
-0.315
-0.33
-0.33
-0.325
-0.32
-0.32
-0.33
-0.335
-0.32
-0.325
-0.3
-0.31
-0.315
-0.325
-0.32
-0.31
-0.305
-0.3
-0.31
-0.315
-0.305
-0.3
-0.29
-0.28
-0.3
-0.315
-0.315
-0.305
-0.29
-0.305
-0.305
-0.315
-0.315
-0.31
-0.29
-0.295
-0.31
-0.315
-0.305
-0.295
-0.3
-0.305
-0.29
-0.315
-0.32
-0.3
-0.245
-0.22
-0.21
-0.22
-0.22
-0.21
-0.19
-0.2
-0.17
-0.165
-0.13
-0.12
-0.11
-0.085
-0.095
-0.095
-0.1
-0.095
-0.085
-0.075
-0.07
-0.06
-0.06
-0.045
-0.07
-0.105
-0.16
-0.2
-0.215
-0.25
-0.28
-0.32
-0.335
-0.35
-0.345
-0.33
-0.34
-0.34
-0.36
-0.36
-0.38
-0.36
-0.32
-0.3
-0.315
-0.33
-0.345
-0.35
-0.33
-0.34
-0.36
-0.35
-0.35
-0.345
-0.345
-0.35
-0.36
-0.365
-0.355
-0.34
-0.335
-0.34
-0.34
-0.335
-0.35
-0.35
-0.355
-0.35
-0.35
-0.375
-0.39
-0.375
-0.38
-0.4
-0.42
-0.425
-0.415
-0.415
-0.39
-0.385
-0.435
-0.53
-0.585
-0.61
-0.585
-0.575
-0.605
-0.635
-0.665
-0.7
-0.725
-0.76
-0.79
-0.795
-0.8
-0.85
-0.91
-0.955
-0.965
-0.975
-0.95
-0.91
-0.87
-0.84
-0.81
-0.775
-0.695
-0.615
-0.555
-0.51
-0.485
-0.44
-0.36
-0.335
-0.315
-0.295
-0.285
-0.285
-0.285
-0.275
-0.265
-0.245
-0.255
-0.26
-0.26
-0.24
-0.225
-0.245
-0.25
-0.27
-0.27
-0.25
-0.24
-0.22
-0.245
-0.25
-0.24
-0.23
-0.22
-0.22
-0.22
-0.235
-0.215
-0.215
-0.215
-0.2
-0.215
-0.22
-0.215
-0.225
-0.215
-0.215
-0.22
-0.23
-0.21
-0.195
-0.2
-0.2
-0.185
-0.18
-0.17
-0.18
-0.19
-0.185
-0.175
-0.195
-0.17
-0.165
-0.14
-0.13
-0.13
-0.13
-0.135
-0.13
-0.135
-0.125
-0.12
-0.115
-0.115
-0.13
-0.115
-0.115
-0.11
-0.115
-0.085
-0.07
-0.08
-0.08
-0.105
-0.115
-0.115
-0.115
-0.12
-0.12
-0.12
-0.125
-0.13
-0.13
-0.135
-0.14
-0.155
-0.155
-0.145
-0.145
-0.155
-0.19
-0.205
-0.22
-0.21
-0.215
-0.23
-0.24
-0.245
-0.24
-0.25
-0.255
-0.23
-0.235
-0.25
-0.28
-0.27
-0.265
-0.265
-0.285
-0.275
-0.28
-0.255
-0.26
-0.27
-0.275
-0.29
-0.29
-0.305
-0.315
-0.305
-0.3
-0.3
-0.3
-0.3
-0.28
-0.28
-0.28
-0.3
-0.31
-0.305
-0.3
-0.29
-0.31
-0.345
-0.355
-0.335
-0.315
-0.32
-0.325
-0.34
-0.345
-0.365
-0.355
-0.32
-0.32
-0.34
-0.355
-0.35
-0.33
-0.31
-0.315
-0.335
-0.365
-0.37
-0.355
-0.345
-0.345
-0.38
-0.405
-0.395
-0.39
-0.38
-0.385
-0.39
-0.41
-0.4
-0.4
-0.41
-0.405
-0.395
-0.4
-0.385
-0.39
-0.39
-0.395
-0.41
-0.41
-0.405
-0.38
-0.385
-0.405
-0.41
-0.415
-0.4
-0.395
-0.4
-0.395
-0.395
-0.41
-0.41
-0.4
-0.385
-0.375
-0.375
-0.39
-0.4
-0.385
-0.38
-0.375
-0.39
-0.4
-0.375
-0.37
-0.38
-0.4
-0.4
-0.375
-0.345
-0.33
-0.33
-0.36
-0.39
-0.405
-0.375
-0.35
-0.345
-0.36
-0.355
-0.365
-0.35
-0.335
-0.35
-0.36
-0.36
-0.37
-0.355
-0.34
-0.345
-0.34
-0.35
-0.365
-0.38
-0.37
-0.35
-0.325
-0.33
-0.35
-0.36
-0.35
-0.35
-0.325
-0.31
-0.335
-0.345
-0.35
-0.345
-0.355
-0.35
-0.36
-0.355
-0.345
-0.34
-0.335
-0.345
-0.365
-0.39
-0.38
-0.34
-0.28
-0.26
-0.28
-0.28
-0.275
-0.26
-0.26
-0.27
-0.285
-0.245
-0.23
-0.205
-0.195
-0.185
-0.18
-0.14
-0.13
-0.105
-0.13
-0.15
-0.145
-0.12
-0.105
-0.07
-0.08
-0.085
-0.135
-0.21
-0.25
-0.26
-0.285
-0.315
-0.36
-0.375
-0.385
-0.365
-0.37
-0.37
-0.395
-0.385
-0.37
-0.375
-0.39
-0.395
-0.4
-0.39
-0.385
-0.385
-0.38
-0.4
-0.4
-0.385
-0.375
-0.36
-0.375
-0.39
-0.39
-0.405
-0.4
-0.39
-0.365
-0.385
-0.395
-0.4
-0.395
-0.39
-0.385
-0.385
-0.4
-0.385
-0.375
-0.385
-0.405
-0.45
-0.44
-0.415
-0.395
-0.375
-0.38
-0.395
-0.465
-0.54
-0.6
-0.62
-0.64
-0.655
-0.65
-0.65
-0.68
-0.735
-0.78
-0.82
-0.855
-0.855
-0.89
-0.935
-0.985
-1.015
-1.02
-1.015
-0.985
-0.93
-0.885
-0.88
-0.835
-0.74
-0.655
-0.585
-0.545
-0.525
-0.505
-0.45
-0.39
-0.335
-0.315
-0.31
-0.32
-0.31
-0.3
-0.285
-0.285
-0.285
-0.305
-0.29
-0.28
-0.28
-0.275
-0.28
-0.3
-0.29
-0.275
-0.26
-0.265
-0.27
-0.28
-0.285
-0.285
-0.275
-0.25
-0.25
-0.26
-0.28
-0.265
-0.25
-0.26
-0.255
-0.255
-0.26
-0.245
-0.245
-0.24
-0.23
-0.235
-0.225
-0.225
-0.2
-0.21
-0.225
-0.235
-0.23
-0.225
-0.2
-0.18
-0.185
-0.185
-0.19
-0.2
-0.185
-0.17
-0.16
-0.17
-0.17
-0.155
-0.155
-0.15
-0.15
-0.165
-0.16
-0.15
-0.15
-0.15
-0.15
-0.145
-0.135
-0.145
-0.15
-0.145
-0.15
-0.165
-0.15
-0.13
-0.12
-0.13
-0.135
-0.145
-0.145
-0.15
-0.155
-0.165
-0.175
-0.2
-0.215
-0.22
-0.205
-0.21
-0.22
-0.23
-0.235
-0.245
-0.235
-0.25
-0.27
-0.27
-0.28
-0.265
-0.255
-0.255
-0.285
-0.29
-0.28
-0.275
-0.27
-0.275
-0.265
-0.275
-0.285
-0.275
-0.265
-0.28
-0.29
-0.295
-0.285
-0.265
-0.27
-0.28
-0.295
-0.305
-0.3
-0.28
-0.285
-0.285
-0.305
-0.315
-0.315
-0.295
-0.295
-0.295
-0.3
-0.31
-0.32
-0.305
-0.3
-0.305
-0.305
-0.33
-0.335
-0.335
-0.315
-0.315
-0.33
-0.355
-0.335
-0.325
-0.325
-0.325
-0.33
-0.355
-0.36
-0.35
-0.35
-0.345
-0.355
-0.38
-0.375
-0.37
-0.365
-0.37
-0.385
-0.405
-0.4
-0.395
-0.37
-0.37
-0.39
-0.41
-0.4
-0.405
-0.385
-0.365
-0.375
-0.395
-0.405
-0.4
-0.38
-0.365
-0.365
-0.385
-0.395
-0.4
-0.385
-0.375
-0.39
-0.38
-0.355
-0.34
-0.36
-0.38
-0.39
-0.38
-0.365
-0.365
-0.355
-0.355
-0.37
-0.375
-0.385
-0.375
-0.375
-0.375
-0.345
-0.345
-0.35
-0.35
-0.35
-0.355
-0.345
-0.355
-0.35
-0.355
-0.355
-0.37
-0.36
-0.365
-0.36
-0.35
-0.345
-0.36
-0.355
-0.375
-0.36
-0.355
-0.36
-0.365
-0.36
-0.365
-0.36
-0.35
-0.34
-0.335
-0.335
-0.35
-0.33
-0.31
-0.32
-0.31
-0.305
-0.32
-0.31
-0.285
-0.275
-0.265
-0.22
-0.19
-0.17
-0.185
-0.175
-0.155
-0.15
-0.155
-0.155
-0.145
-0.12
-0.1
-0.11
-0.14
-0.15
-0.185
-0.21
-0.245
-0.285
-0.325
-0.37
-0.395
-0.4
-0.42
-0.41
-0.415
-0.425
-0.405
-0.405
-0.405
-0.415
-0.425
-0.44
-0.44
-0.41
-0.395
-0.405
-0.43
-0.43
-0.425
-0.405
-0.42
-0.41
-0.405
-0.4
-0.4
-0.4
-0.42
-0.43
-0.44
-0.43
-0.42
-0.425
-0.41
-0.4
-0.42
-0.415
-0.415
-0.41
-0.425
-0.445
-0.475
-0.46
-0.42
-0.38
-0.39
-0.41
-0.405
-0.435
-0.505
-0.605
-0.65
-0.665
-0.665
-0.68
-0.69
-0.695
-0.74
-0.795
-0.845
-0.885
-0.9
-0.915
-0.965
-1.02
-1.07
-1.065
-1.045
-1.005
-0.955
-0.925
-0.915
-0.875
-0.79
-0.695
-0.63
-0.6
-0.575
-0.515
-0.44
-0.395
-0.38
-0.385
-0.385
-0.375
-0.36
-0.34
-0.33
-0.34
-0.35
-0.35
-0.33
-0.325
-0.33
-0.335
-0.335
-0.325
-0.305
-0.295
-0.295
-0.305
-0.32
-0.32
-0.33
-0.31
-0.305
-0.295
-0.31
-0.3
-0.3
-0.29
-0.28
-0.285
-0.29
-0.28
-0.265
-0.25
-0.26
-0.27
-0.28
-0.26
-0.255
-0.27
-0.265
-0.255
-0.245
-0.235
-0.24
-0.23
-0.21
-0.21
-0.22
-0.225
-0.215
-0.205
-0.205
-0.205
-0.21
-0.2
-0.21
-0.19
-0.19
-0.19
-0.2
-0.21
-0.215
-0.175
-0.155
-0.165
-0.185
-0.18
-0.165
-0.15
-0.15
-0.165
-0.18
-0.19
-0.18
-0.185
-0.21
-0.22
-0.235
-0.235
-0.23
-0.225
-0.24
-0.255
-0.265
-0.275
-0.265
-0.27
-0.285
-0.295
-0.31
-0.305
-0.3
-0.305
-0.305
-0.325
-0.365
-0.345
-0.33
-0.315
-0.335
-0.32
-0.35
-0.335
-0.34
-0.33
-0.34
-0.35
-0.355
-0.375
-0.36
-0.335
-0.335
-0.34
-0.36
-0.355
-0.36
-0.345
-0.35
-0.35
-0.365
-0.355
-0.36
-0.345
-0.355
-0.355
-0.365
-0.375
-0.365
-0.35
-0.36
-0.345
-0.37
-0.365
-0.35
-0.34
-0.35
-0.37
-0.385
-0.39
-0.375
-0.365
-0.375
-0.395
-0.405
-0.41
-0.405
-0.4
-0.4
-0.405
-0.425
-0.41
-0.405
-0.385
-0.395
-0.405
-0.41
-0.42
-0.41
-0.41
-0.405
-0.4
-0.41
-0.42
-0.415
-0.415
-0.43
-0.425
-0.43
-0.435
-0.425
-0.415
-0.41
-0.395
-0.41
-0.43
-0.45
-0.42
-0.425
-0.42
-0.435
-0.42
-0.425
-0.42
-0.43
-0.425
-0.425
-0.4
-0.395
-0.405
-0.41
-0.4
-0.395
-0.38
-0.37
-0.375
-0.385
-0.405
-0.41
-0.41
-0.405
-0.39
-0.395
-0.41
-0.42
-0.39
-0.385
-0.38
-0.375
-0.38
-0.395
-0.39
-0.385
-0.39
-0.4
-0.415
-0.4
-0.41
-0.395
-0.4
-0.395
-0.405
-0.395
-0.37
-0.365
-0.36
-0.37
-0.385
-0.395
-0.39
-0.375
-0.365
-0.375
-0.395
-0.39
-0.385
-0.375
-0.365
-0.36
-0.37
-0.38
-0.36
-0.32
-0.29
-0.285
-0.31
-0.31
-0.285
-0.26
-0.24
-0.22
-0.21
-0.205
-0.21
-0.185
-0.15
-0.135
-0.14
-0.16
-0.17
-0.145
-0.13
-0.125
-0.12
-0.13
-0.14
-0.18
-0.23
-0.27
-0.31
-0.355
-0.41
-0.425
-0.42
-0.41
-0.41
-0.41
-0.405
-0.395
-0.4
-0.4
-0.42
-0.415
-0.415
-0.42
-0.43
-0.44
-0.43
-0.42
-0.415
-0.4
-0.405
-0.41
-0.415
-0.415
-0.41
-0.4
-0.395
-0.405
-0.41
-0.42
-0.415
-0.41
-0.41
-0.4
-0.405
-0.425
-0.405
-0.39
-0.385
-0.39
-0.415
-0.435
-0.43
-0.385
-0.36
-0.365
-0.375
-0.385
-0.42
-0.505
-0.57
-0.62
-0.62
-0.635
-0.635
-0.645
-0.68
-0.725
-0.765
-0.785
-0.82
-0.825
-0.86
-0.895
-0.93
-0.96
-0.98
-0.985
-0.985
-0.94
-0.895
-0.88
-0.85
-0.78
